Channel 1,Channel 2
3853.393555,3256.860352
3853.540039,3256.494141
3853.295898,3256.787109
3853.393555,3256.567383
3853.515625,3256.494141
3853.417969,3256.298828
3853.344727,3256.542969
3853.369141,3256.347656
3853.295898,3256.274414
3853.466797,3256.225586
3853.393555,3256.152344
3853.369141,3256.152344
3853.662109,3256.152344
3853.515625,3256.005859
3853.613281,3255.957031
3853.198242,3255.834961
3853.442383,3255.859375
3853.417969,3255.834961
3853.393555,3255.566406
3853.393555,3255.541992
3853.466797,3255.590820
3853.393555,3255.541992
3853.613281,3255.541992
3853.417969,3255.761719
3853.588867,3255.346680
3853.540039,3255.395508
3853.588867,3255.297852
3853.491211,3255.053711
3853.613281,3255.297852
3853.515625,3255.004883
3853.369141,3255.151367
3853.149414,3255.102539
3853.369141,3254.809570
3853.320313,3254.882813
3853.100586,3254.467773
3852.783203,3254.443359
3852.709961,3254.443359
3852.954102,3255.541992
3853.417969,3256.176758
3853.417969,3256.250000
3853.686523,3256.665039
3853.393555,3256.347656
3853.564453,3256.445313
3853.637695,3256.225586
3853.613281,3256.542969
3853.759766,3256.713867
3853.613281,3256.762695
3853.637695,3256.494141
3853.662109,3256.152344
3853.857422,3256.176758
3853.710938,3256.079102
3853.857422,3256.005859
3853.808594,3256.030273
3853.979492,3256.005859
3854.052734,3255.761719
3853.857422,3255.957031
3853.979492,3255.859375
3854.077148,3255.615234
3853.930664,3255.761719
3854.052734,3255.541992
3853.979492,3255.444336
3854.052734,3255.078125
3853.930664,3255.200195
3854.052734,3254.809570
3853.784180,3255.053711
3854.052734,3254.931641
3853.710938,3254.882813
3853.881836,3254.809570
3853.759766,3255.078125
3853.881836,3254.882813
3853.613281,3254.956055
3853.735352,3254.736328
3853.808594,3254.565430
3853.857422,3254.467773
3853.442383,3254.345703
3853.808594,3254.394531
3853.881836,3254.614258
3853.735352,3254.248047
3853.320313,3254.199219
3853.515625,3254.174805
3853.564453,3254.101563
3853.344727,3254.125977
3853.515625,3254.614258
3853.833008,3255.517578
3854.272461,3255.908203
3854.516602,3256.127930
3854.516602,3255.834961
3854.296875,3256.005859
3854.394531,3255.932617
3854.394531,3256.079102
3854.541016,3256.079102
3854.589844,3256.201172
3854.614258,3256.225586
3854.687500,3256.054688
3854.589844,3255.810547
3854.614258,3255.810547
3854.394531,3255.664063
3854.443359,3255.761719
3854.223633,3255.834961
3854.565430,3255.541992
3854.150391,3255.615234
3854.223633,3255.419922
3854.199219,3255.395508
3854.223633,3255.322266
3854.028320,3255.004883
3853.881836,3254.980469
3854.028320,3255.004883
3853.881836,3255.029297
3854.077148,3255.517578
3854.345703,3255.761719
3854.321289,3255.761719
3854.418945,3255.810547
3854.467773,3255.639648
3854.492188,3255.590820
3854.345703,3255.322266
3854.418945,3255.541992
3854.418945,3255.566406
3854.199219,3255.419922
3854.370117,3255.468750
3854.345703,3255.297852
3854.272461,3255.395508
3854.052734,3254.931641
3854.223633,3255.078125
3854.101563,3255.468750
3854.443359,3256.225586
3854.589844,3256.811523
3855.053711,3256.860352
3854.931641,3256.909180
3854.711914,3256.762695
3854.785156,3256.738281
3854.833984,3256.909180
3854.907227,3256.738281
3854.833984,3257.104492
3854.980469,3256.665039
3854.858398,3256.835938
3855.102539,3256.591797
3855.053711,3256.542969
3854.809570,3256.616211
3854.907227,3256.835938
3854.833984,3256.884766
3855.395508,3257.080078
3855.371094,3256.958008
3855.053711,3257.104492
3855.273438,3256.909180
3855.224609,3256.567383
3855.151367,3256.616211
3855.224609,3256.225586
3855.029297,3256.494141
3855.297852,3256.176758
3854.980469,3255.908203
3855.249023,3255.737305
3854.858398,3255.883789
3855.126953,3255.664063
3855.053711,3255.395508
3855.102539,3255.249023
3854.736328,3255.102539
3855.029297,3255.102539
3854.931641,3255.249023
3855.029297,3255.029297
3854.809570,3255.078125
3854.980469,3254.931641
3854.711914,3255.004883
3855.004883,3254.882813
3855.029297,3255.126953
3855.200195,3254.907227
3854.760742,3254.614258
3854.956055,3254.907227
3855.029297,3254.809570
3854.809570,3254.711914
3854.687500,3254.882813
3855.102539,3254.687500
3855.004883,3254.833984
3855.004883,3255.151367
3855.249023,3255.615234
3855.371094,3256.616211
3855.761719,3256.933594
3856.127930,3257.299805
3856.079102,3257.373047
3856.127930,3256.958008
3856.079102,3256.909180
3855.859375,3256.909180
3856.127930,3256.933594
3856.103516,3257.080078
3856.201172,3257.153320
3856.152344,3256.958008
3856.274414,3256.811523
3856.152344,3256.640625
3856.250000,3256.811523
3856.494141,3256.884766
3856.250000,3257.055664
3856.274414,3256.762695
3856.323242,3256.884766
3856.494141,3256.591797
3856.323242,3256.665039
3856.250000,3256.591797
3856.518555,3256.396484
3856.347656,3256.298828
3856.250000,3256.518555
3856.274414,3256.469727
3856.152344,3256.127930
3856.225586,3256.274414
3856.152344,3256.298828
3856.030273,3256.250000
3856.396484,3256.054688
3856.030273,3255.981445
3856.054688,3256.372070
3856.323242,3255.981445
3856.396484,3256.201172
3856.225586,3256.250000
3856.298828,3256.396484
3856.298828,3256.420898
3856.469727,3256.079102
3856.298828,3255.810547
3856.298828,3256.225586
3856.250000,3256.372070
3856.396484,3256.420898
3856.542969,3255.932617
3856.298828,3256.054688
3856.054688,3256.420898
3856.225586,3256.372070
3856.274414,3256.323242
3856.298828,3256.396484
3856.274414,3256.225586
3856.323242,3256.127930
3856.347656,3256.396484
3856.298828,3256.079102
3856.323242,3256.933594
3856.738281,3257.739258
3857.373047,3258.105469
3857.470703,3258.325195
3857.495117,3258.325195
3857.324219,3258.056641
3857.250977,3257.788086
3857.080078,3257.519531
3857.031250,3257.153320
3857.202148,3257.666016
3857.250977,3257.739258
3857.128906,3257.495117
3857.153320,3257.397461
3857.104492,3257.348633
3857.128906,3257.055664
3857.202148,3257.128906
3856.933594,3256.835938
3857.348633,3256.835938
3857.226563,3256.835938
3857.226563,3256.909180
3857.299805,3256.835938
3857.446289,3256.689453
3857.299805,3256.811523
3857.250977,3256.860352
3857.299805,3256.567383
3857.275391,3256.445313
3857.495117,3256.542969
3857.202148,3256.420898
3857.055664,3256.640625
3857.153320,3256.542969
3857.080078,3256.591797
3856.933594,3256.298828
3857.006836,3256.738281
3857.104492,3256.518555
3857.104492,3256.323242
3856.982422,3256.127930
3856.982422,3256.323242
3857.031250,3256.127930
3856.982422,3256.372070
3856.835938,3255.859375
3856.689453,3255.932617
3856.665039,3255.859375
3856.469727,3255.834961
3856.665039,3255.688477
3856.494141,3255.590820
3856.567383,3255.468750
3856.469727,3255.493164
3856.616211,3255.346680
3856.567383,3255.541992
3856.665039,3256.298828
3857.299805,3257.153320
3857.788086,3257.714844
3858.007813,3257.983398
3857.714844,3258.007813
3858.007813,3257.812500
3857.885742,3257.373047
3857.910156,3257.446289
3857.958984,3257.397461
3857.812500,3257.666016
3858.056641,3257.617188
3857.861328,3257.421875
3857.885742,3257.617188
3857.958984,3257.836914
3858.178711,3257.812500
3858.178711,3257.788086
3858.325195,3257.885742
3858.374023,3258.007813
3858.374023,3257.885742
3858.447266,3257.714844
3858.349609,3257.543945
3858.276367,3257.324219
3858.276367,3257.177734
3858.398438,3257.250977
3858.203125,3257.104492
3858.276367,3257.275391
3858.471680,3257.543945
3858.447266,3257.275391
3858.349609,3257.373047
3858.642578,3257.299805
3858.422852,3257.299805
3858.496094,3257.324219
3858.447266,3257.421875
3858.276367,3257.421875
3858.618164,3257.470703
3858.471680,3257.470703
3858.496094,3257.421875
3858.447266,3257.250977
3858.715820,3257.495117
3858.666992,3257.714844
3858.764648,3257.885742
3858.666992,3257.763672
3858.959961,3258.227539
3859.155273,3258.813477
3859.301758,3259.204102
3859.619141,3259.570313
3859.643555,3259.472656
3859.765625,3259.448242
3859.863281,3259.179688
3859.741211,3259.033203
3859.838867,3259.106445
3859.790039,3259.082031
3859.936523,3258.789063
3859.936523,3258.691406
3859.985352,3259.155273
3860.083008,3258.593750
3860.083008,3258.666992
3860.034180,3258.813477
3860.180664,3258.618164
3860.131836,3258.740234
3860.229492,3258.764648
3860.400391,3258.691406
3860.156250,3258.740234
3860.253906,3258.837891
3860.083008,3258.886719
3859.985352,3258.715820
3860.083008,3258.862305
3859.960938,3258.837891
3860.083008,3258.813477
3860.180664,3258.813477
3859.863281,3258.666992
3860.107422,3258.789063
3860.205078,3258.862305
3860.058594,3258.789063
3860.131836,3258.691406
3860.058594,3258.447266
3860.034180,3258.569336
3860.009766,3258.276367
3859.863281,3258.715820
3859.960938,3258.325195
3860.205078,3258.398438
3860.156250,3258.129883
3859.790039,3258.105469
3860.180664,3258.496094
3860.278320,3259.179688
3860.620117,3259.936523
3860.913086,3260.571289
3861.010742,3260.742188
3860.937500,3260.571289
3860.937500,3260.375977
3860.888672,3260.351563
3860.888672,3260.229492
3861.059570,3260.229492
3860.937500,3260.449219
3860.986328,3260.327148
3861.108398,3260.058594
3860.839844,3260.107422
3861.010742,3259.741211
3860.766602,3259.887695
3860.986328,3259.985352
3860.961914,3259.936523
3860.937500,3259.741211
3860.888672,3259.790039
3860.864258,3259.619141
3860.546875,3259.497070
3860.302734,3259.619141
3860.131836,3259.375000
3860.278320,3259.082031
3860.205078,3259.350586
3860.131836,3259.301758
3860.083008,3259.057617
3860.034180,3259.301758
3860.083008,3259.106445
3859.765625,3259.252930
3859.863281,3259.277344
3860.180664,3258.984375
3860.083008,3259.082031
3859.960938,3259.057617
3860.009766,3259.008789
3859.863281,3258.911133
3859.960938,3259.082031
3860.180664,3258.911133
3860.131836,3258.984375
3860.229492,3258.813477
3859.960938,3258.447266
3860.107422,3258.618164
3860.034180,3258.789063
3860.180664,3259.350586
3860.839844,3260.327148
3861.376953,3261.132813
3861.376953,3261.230469
3861.645508,3261.303711
3861.352539,3261.303711
3861.523438,3261.181641
3861.376953,3261.352539
3861.376953,3261.865234
3861.865234,3261.816406
3862.158203,3261.987305
3862.451172,3261.889648
3862.377930,3261.987305
3862.353516,3262.060547
3862.353516,3261.914063
3862.182617,3261.889648
3862.011719,3262.377930
3862.109375,3262.036133
3862.084961,3262.329102
3862.133789,3262.133789
3862.109375,3262.255859
3862.280273,3262.426758
3862.231445,3262.377930
3862.426758,3262.622070
3862.500000,3262.451172
3862.622070,3262.402344
3862.622070,3262.475586
3862.670898,3262.451172
3862.866211,3262.646484
3862.841797,3262.573242
3862.915039,3262.915039
3862.915039,3262.866211
3862.866211,3262.548828
3863.354492,3262.866211
3862.866211,3262.597656
3863.134766,3262.890625
3862.988281,3262.719727
3863.183594,3262.597656
3863.085938,3262.548828
3862.939453,3262.646484
3863.037109,3262.475586
3863.232422,3262.231445
3862.988281,3262.329102
3862.817383,3262.255859
3863.012695,3262.231445
3863.061523,3262.207031
3863.134766,3262.475586
3863.476563,3263.452148
3864.086914,3264.550781
3864.306641,3264.990234
3864.648438,3265.063477
3864.355469,3264.990234
3864.257813,3264.746094
3864.306641,3264.697266
3864.013672,3264.965820
3864.282227,3264.868164
3864.257813,3265.234375
3863.989258,3264.965820
3864.233398,3264.794922
3864.135742,3264.916992
3864.013672,3264.892578
3864.160156,3265.112305
3864.404297,3265.405273
3864.404297,3265.283203
3864.501953,3265.185547
3864.428711,3265.576172
3864.501953,3265.454102
3864.575195,3265.380859
3864.331055,3265.185547
3864.550781,3265.234375
3864.697266,3265.039063
3864.843750,3264.916992
3864.599609,3264.965820
3864.672852,3264.794922
3864.477539,3264.379883
3864.233398,3264.208984
3864.062500,3263.842773
3863.769531,3263.745117
3863.867188,3263.330078
3863.769531,3263.427734
3863.793945,3263.525391
3863.720703,3263.745117
3864.135742,3263.696289
3864.086914,3263.940430
3864.062500,3264.208984
3864.086914,3264.062500
3863.916016,3263.964844
3863.696289,3263.916016
3864.111328,3264.892578
3864.355469,3265.551758
3864.672852,3266.406250
3864.868164,3266.699219
3864.648438,3266.308594
3864.575195,3266.357422
3864.697266,3266.259766
3864.453125,3266.357422
3865.112305,3267.529297
3865.209961,3267.602539
3865.527344,3267.871094
3865.356445,3267.431641
3865.332031,3267.480469
3865.087891,3267.285156
3864.965820,3266.943359
3864.575195,3266.528320
3864.355469,3266.235352
3864.550781,3266.406250
3864.453125,3266.064453
3864.208984,3265.942383
3864.306641,3265.795898
3864.111328,3265.869141
3864.306641,3265.991211
3864.477539,3266.162109
3864.575195,3266.137695
3864.379883,3266.137695
3864.550781,3266.259766
3864.550781,3266.259766
3864.526367,3266.455078
3864.916992,3266.137695
3864.770508,3266.162109
3864.721680,3266.088867
3864.770508,3265.795898
3864.819336,3265.649414
3864.648438,3265.429688
3864.477539,3265.527344
3864.355469,3265.039063
3864.501953,3265.161133
3864.599609,3265.307617
3864.624023,3264.965820
3864.404297,3265.063477
3864.331055,3265.014648
3864.404297,3265.161133
3864.331055,3264.916992
3864.135742,3264.819336
3864.233398,3265.136719
3864.282227,3265.576172
3864.843750,3266.723633
3865.258789,3267.553711
3865.625000,3268.164063
3865.502930,3267.993164
3865.576172,3267.822266
3865.551758,3267.675781
3865.600586,3267.724609
3865.502930,3267.895508
3865.698242,3267.871094
3865.722656,3267.871094
3866.113281,3268.066406
3866.162109,3267.871094
3866.064453,3267.944336
3866.284180,3268.066406
3866.406250,3267.773438
3866.186523,3267.578125
3866.430664,3267.724609
3866.259766,3267.504883
3866.381836,3267.529297
3866.308594,3267.065430
3866.186523,3266.674805
3866.064453,3266.992188
3866.235352,3266.650391
3866.137695,3266.577148
3865.991211,3266.479492
3865.966797,3266.259766
3865.649414,3266.357422
3865.649414,3266.381836
3865.527344,3265.942383
3865.576172,3266.064453
3865.454102,3265.625000
3865.600586,3265.820313
3865.527344,3265.991211
3865.502930,3266.040039
3865.747070,3265.893555
3865.625000,3265.917969
3865.625000,3265.966797
3865.625000,3265.966797
3865.722656,3266.015625
3865.844727,3266.040039
3865.673828,3265.966797
3865.771484,3265.942383
3865.722656,3265.502930
3865.698242,3265.795898
3865.795898,3265.600586
3865.869141,3266.259766
3865.698242,3266.162109
3866.113281,3265.869141
3865.991211,3266.259766
3865.942383,3266.235352
3865.795898,3266.259766
3866.015625,3266.015625
3865.942383,3266.308594
3866.357422,3267.211914
3866.918945,3268.457031
3867.211914,3268.823242
3867.480469,3269.018555
3867.651367,3268.994141
3867.333984,3268.725586
3867.431641,3268.603516
3867.382813,3268.627930
3867.504883,3268.603516
3867.504883,3268.603516
3867.724609,3268.603516
3867.822266,3268.774414
3867.822266,3268.627930
3867.407227,3268.359375
3867.431641,3268.286133
3867.431641,3268.164063
3867.553711,3268.261719
3867.358398,3268.310547
3867.578125,3268.359375
3867.431641,3268.383789
3867.602539,3268.359375
3867.529297,3268.139648
3867.602539,3267.919922
3867.333984,3267.749023
3867.236328,3267.407227
3866.821289,3266.674805
3866.748047,3266.552734
3866.601563,3266.113281
3866.162109,3265.600586
3865.820313,3265.380859
3865.698242,3265.332031
3865.722656,3265.356445
3866.040039,3265.747070
3866.137695,3265.600586
3866.162109,3265.576172
3866.235352,3265.673828
3866.406250,3265.844727
3866.406250,3265.649414
3866.601563,3265.625000
3866.357422,3265.942383
3866.577148,3265.844727
3866.748047,3266.040039
3866.748047,3265.917969
3866.455078,3265.942383
3866.577148,3265.722656
3866.674805,3265.722656
3866.430664,3265.576172
3866.674805,3265.576172
3866.577148,3265.405273
3866.479492,3265.161133
3866.357422,3265.283203
3866.357422,3265.136719
3866.479492,3264.965820
3866.137695,3265.258789
3866.577148,3265.820313
3866.967773,3266.918945
3867.407227,3267.749023
3867.797852,3268.115234
3867.529297,3267.993164
3867.651367,3267.407227
3867.578125,3267.382813
3867.578125,3267.431641
3867.504883,3267.382813
3867.382813,3267.309570
3867.602539,3267.578125
3867.602539,3267.480469
3867.382813,3267.333984
3867.700195,3267.504883
3867.700195,3267.529297
3867.578125,3267.309570
3867.919922,3267.431641
3867.797852,3267.456055
3867.919922,3267.285156
3868.017578,3267.504883
3867.675781,3267.285156
3867.626953,3267.163086
3867.993164,3266.894531
3867.822266,3266.870117
3867.456055,3266.723633
3867.578125,3266.455078
3867.382813,3266.381836
3867.187500,3266.064453
3867.138672,3265.820313
3866.870117,3265.771484
3866.748047,3265.551758
3867.065430,3265.649414
3867.041016,3265.698242
3866.845703,3265.527344
3866.748047,3265.356445
3866.967773,3265.454102
3866.674805,3265.112305
3866.625977,3265.283203
3866.772461,3265.063477
3867.016602,3264.965820
3866.650391,3264.941406
3866.943359,3264.965820
3866.943359,3264.916992
3867.016602,3264.892578
3866.943359,3265.039063
3867.187500,3264.819336
3867.065430,3264.868164
3867.236328,3264.819336
3867.211914,3265.039063
3867.163086,3265.161133
3867.504883,3266.235352
3867.895508,3266.894531
3868.334961,3267.553711
3868.408203,3267.187500
3867.968750,3267.065430
3868.457031,3267.089844
3868.188477,3266.699219
3868.139648,3266.821289
3868.188477,3266.577148
3867.919922,3266.503906
3867.871094,3266.455078
3867.993164,3266.577148
3867.968750,3266.235352
3868.237305,3266.235352
3867.871094,3266.455078
3868.090820,3266.284180
3867.871094,3266.235352
3867.993164,3266.259766
3868.139648,3266.259766
3867.700195,3266.064453
3867.529297,3265.771484
3867.431641,3265.722656
3867.236328,3265.551758
3867.333984,3265.405273
3867.138672,3265.112305
3867.114258,3265.063477
3866.967773,3264.892578
3866.455078,3264.819336
3866.137695,3264.501953
3866.186523,3264.477539
3866.040039,3264.379883
3866.210938,3264.550781
3866.113281,3264.501953
3866.040039,3264.697266
3866.357422,3264.453125
3866.284180,3264.501953
3866.186523,3264.428711
3866.040039,3264.233398
3865.942383,3264.331055
3866.015625,3264.038086
3866.015625,3264.135742
3865.649414,3264.062500
3865.869141,3264.062500
3865.820313,3263.745117
3865.771484,3263.671875
3865.649414,3263.549805
3865.795898,3263.623047
3865.917969,3264.453125
3866.381836,3265.356445
3866.699219,3265.722656
3866.894531,3265.527344
3866.796875,3265.454102
3866.601563,3265.136719
3866.210938,3264.916992
3866.357422,3264.721680
3866.137695,3264.453125
3866.186523,3264.599609
3866.015625,3264.868164
3866.088867,3264.575195
3866.186523,3264.404297
3866.186523,3264.208984
3865.991211,3264.208984
3865.966797,3264.428711
3866.064453,3264.208984
3866.015625,3264.233398
3866.333008,3263.916016
3866.113281,3264.282227
3866.088867,3264.160156
3866.284180,3264.160156
3866.040039,3263.940430
3865.991211,3263.647461
3865.966797,3263.598633
3865.771484,3263.452148
3865.893555,3263.427734
3865.966797,3263.427734
3865.917969,3263.330078
3865.917969,3263.403320
3865.893555,3263.110352
3865.991211,3263.037109
3865.966797,3263.110352
3865.991211,3263.256836
3865.795898,3263.061523
3866.040039,3262.988281
3865.942383,3262.963867
3866.357422,3263.012695
3865.966797,3262.866211
3866.137695,3262.841797
3866.040039,3262.573242
3866.064453,3262.500000
3865.991211,3262.548828
3865.917969,3262.402344
3865.991211,3262.426758
3865.917969,3262.255859
3865.917969,3262.133789
3865.966797,3262.182617
3866.015625,3262.304688
3866.040039,3262.719727
3866.040039,3263.574219
3866.601563,3264.282227
3866.943359,3264.770508
3867.187500,3265.087891
3866.992188,3264.868164
3867.065430,3265.014648
3867.041016,3264.941406
3866.918945,3264.721680
3866.967773,3264.697266
3866.821289,3264.819336
3867.114258,3264.819336
3866.918945,3264.770508
3867.065430,3264.550781
3866.821289,3264.526367
3866.870117,3264.501953
3866.870117,3264.599609
3866.772461,3264.404297
3866.601563,3264.477539
3866.625977,3264.453125
3866.601563,3264.355469
3866.430664,3264.599609
3866.503906,3264.331055
3866.333008,3264.111328
3866.430664,3263.891602
3866.333008,3263.989258
3866.430664,3263.940430
3866.430664,3263.818359
3866.455078,3263.916016
3866.455078,3263.916016
3866.772461,3263.720703
3866.528320,3263.745117
3866.699219,3263.623047
3866.455078,3263.476563
3866.333008,3263.427734
3866.455078,3263.305664
3866.577148,3263.110352
3866.333008,3263.183594
3866.210938,3263.183594
3866.381836,3263.256836
3866.479492,3263.159180
3866.455078,3263.208008
3866.259766,3263.354492
3866.455078,3263.085938
3866.455078,3263.061523
3866.455078,3263.305664
3866.284180,3263.183594
3866.381836,3263.012695
3866.430664,3263.061523
3866.357422,3263.232422
3866.796875,3264.086914
3867.382813,3264.916992
3867.675781,3265.869141
3867.968750,3265.991211
3868.066406,3265.722656
3868.164063,3265.527344
3867.944336,3265.429688
3867.968750,3265.332031
3867.626953,3265.307617
3867.504883,3265.283203
3867.480469,3264.965820
3867.602539,3265.209961
3867.602539,3265.136719
3867.480469,3264.990234
3867.382813,3265.087891
3867.456055,3265.185547
3867.480469,3265.209961
3867.651367,3265.136719
3867.822266,3264.990234
3867.700195,3264.941406
3867.749023,3264.648438
3867.626953,3264.697266
3867.749023,3264.672852
3867.871094,3264.697266
3867.871094,3264.477539
3867.749023,3264.501953
3867.993164,3264.404297
3867.919922,3264.526367
3867.968750,3264.428711
3867.773438,3264.135742
3867.944336,3264.208984
3867.578125,3264.331055
3867.822266,3264.428711
3867.749023,3264.404297
3867.919922,3264.477539
3867.968750,3264.355469
3868.139648,3264.282227
3867.846680,3264.062500
3867.919922,3264.208984
3867.773438,3263.916016
3867.504883,3263.891602
3867.944336,3263.891602
3867.968750,3263.793945
3867.797852,3263.964844
3868.041992,3263.720703
3867.968750,3264.184570
3868.090820,3265.722656
3868.481445,3265.942383
3868.676758,3266.186523
3868.823242,3266.455078
3868.725586,3266.210938
3868.603516,3266.137695
3868.457031,3266.113281
3868.432617,3265.991211
3868.432617,3265.893555
3868.310547,3266.040039
3868.261719,3265.991211
3868.334961,3265.844727
3868.383789,3266.015625
3868.359375,3265.844727
3868.554688,3265.820313
3868.554688,3265.893555
3868.188477,3265.942383
3868.310547,3265.820313
3868.334961,3265.844727
3868.457031,3265.771484
3868.627930,3265.917969
3868.554688,3265.722656
3868.579102,3265.625000
3868.359375,3265.649414
3868.310547,3265.307617
3868.334961,3265.600586
3868.212891,3265.454102
3868.115234,3265.356445
3868.432617,3265.161133
3868.310547,3265.209961
3868.359375,3265.063477
3868.286133,3264.843750
3867.993164,3264.794922
3868.164063,3264.697266
3868.237305,3264.648438
3868.041992,3264.599609
3868.115234,3264.526367
3868.090820,3264.208984
3868.212891,3264.331055
3868.188477,3264.233398
3868.188477,3264.135742
3868.090820,3264.233398
3867.822266,3264.184570
3868.041992,3264.013672
3868.164063,3263.964844
3867.993164,3264.086914
3868.066406,3263.964844
3867.993164,3264.428711
3868.017578,3264.721680
3868.286133,3265.747070
3868.847656,3266.503906
3869.189453,3266.845703
3869.335938,3267.016602
3868.872070,3266.943359
3869.091797,3266.870117
3868.896484,3266.845703
3869.018555,3266.772461
3869.238281,3266.992188
3869.042969,3266.967773
3869.140625,3266.845703
3869.067383,3266.674805
3868.920898,3266.577148
3868.896484,3266.503906
3868.750000,3266.577148
3868.872070,3266.406250
3868.823242,3266.235352
3869.042969,3266.381836
3869.067383,3265.820313
3869.042969,3265.869141
3869.042969,3265.795898
3869.067383,3265.649414
3869.140625,3265.625000
3869.189453,3265.185547
3869.042969,3265.234375
3869.165039,3265.063477
3868.994141,3264.819336
3868.945313,3264.770508
3869.116211,3264.721680
3868.969727,3264.648438
3868.872070,3264.526367
3869.018555,3264.770508
3868.896484,3264.672852
3868.872070,3264.599609
3868.481445,3264.550781
3868.530273,3264.672852
3868.505859,3264.599609
3868.334961,3264.404297
3868.286133,3264.208984
3868.286133,3264.624023
3868.237305,3264.257813
3868.066406,3264.257813
3868.041992,3263.793945
3867.993164,3263.989258
3867.895508,3264.111328
3867.944336,3263.818359
3868.212891,3263.867188
3867.944336,3263.671875
3868.066406,3263.696289
3868.090820,3263.916016
3868.237305,3263.891602
3868.505859,3263.989258
3868.457031,3264.697266
3869.116211,3265.478516
3869.531250,3266.333008
3869.848633,3266.284180
3869.921875,3266.528320
3869.848633,3266.308594
3869.653320,3265.917969
3869.726563,3265.844727
3869.482422,3265.625000
3869.555664,3265.673828
3869.628906,3265.771484
3869.628906,3265.844727
3869.726563,3265.551758
3869.555664,3265.332031
3869.433594,3265.185547
3869.335938,3264.941406
3869.482422,3265.332031
3869.287109,3264.990234
3869.213867,3265.429688
3869.140625,3265.429688
3869.311523,3265.429688
3869.213867,3265.527344
3869.238281,3265.673828
3869.116211,3265.454102
3869.384766,3265.307617
3869.189453,3265.429688
3869.116211,3265.429688
3868.994141,3265.429688
3869.018555,3265.454102
3869.042969,3265.429688
3869.018555,3265.332031
3869.116211,3265.380859
3869.409180,3265.673828
3869.067383,3265.600586
3869.165039,3265.502930
3869.287109,3265.185547
3869.189453,3265.161133
3869.213867,3265.039063
3869.091797,3264.672852
3869.360352,3264.770508
3869.384766,3264.477539
3868.945313,3264.404297
3869.287109,3264.453125
3869.384766,3263.989258
3869.384766,3264.184570
3869.213867,3264.208984
3869.287109,3263.989258
3869.262695,3264.233398
3869.555664,3264.794922
3869.726563,3265.600586
3870.288086,3266.284180
3870.434570,3266.650391
3870.434570,3266.528320
3870.434570,3265.966797
3870.263672,3265.722656
3869.946289,3265.722656
3869.970703,3265.405273
3869.848633,3265.527344
3869.946289,3265.405273
3869.995117,3265.454102
3869.604492,3265.185547
3869.946289,3265.258789
3869.873047,3265.600586
3869.921875,3265.844727
3869.897461,3265.698242
3869.726563,3265.747070
3869.873047,3265.576172
3869.995117,3265.673828
3870.068359,3265.576172
3869.897461,3265.698242
3869.921875,3265.698242
3869.946289,3265.600586
3869.897461,3265.600586
3869.897461,3265.673828
3869.921875,3265.136719
3870.043945,3265.185547
3869.873047,3265.014648
3869.799805,3264.819336
3869.726563,3264.794922
3869.799805,3264.843750
3869.775391,3264.550781
3869.775391,3264.379883
3869.750977,3264.135742
3869.824219,3264.428711
3869.897461,3264.160156
3869.604492,3263.964844
3869.824219,3263.891602
3869.775391,3263.891602
3869.677734,3263.842773
3869.628906,3264.038086
3869.824219,3263.818359
3869.848633,3263.720703
3869.653320,3263.574219
3869.604492,3263.452148
3869.799805,3263.745117
3869.775391,3263.574219
3869.873047,3263.720703
3870.092773,3264.746094
3870.385742,3265.991211
3870.898438,3266.601563
3871.191406,3266.894531
3871.313477,3266.845703
3871.142578,3266.748047
3871.044922,3266.674805
3870.825195,3266.284180
3870.898438,3266.284180
3870.605469,3266.186523
3870.776367,3266.357422
3870.556641,3266.357422
3870.385742,3266.088867
3870.483398,3265.917969
3870.581055,3265.917969
3870.483398,3266.259766
3870.483398,3265.869141
3870.507813,3266.064453
3870.336914,3265.698242
3870.385742,3265.747070
3870.800781,3265.625000
3870.434570,3265.527344
3870.703125,3265.283203
3870.727539,3265.380859
3870.776367,3265.258789
3870.751953,3265.161133
3870.605469,3264.916992
3870.898438,3264.916992
3870.922852,3264.770508
3870.800781,3264.770508
3870.678711,3264.672852
3871.093750,3264.672852
3870.727539,3264.526367
3870.678711,3264.624023
3870.605469,3264.428711
3870.556641,3264.306641
3870.507813,3264.208984
3870.068359,3264.184570
3870.214844,3264.208984
3870.239258,3264.208984
3869.995117,3264.111328
3869.946289,3263.916016
3869.580078,3263.842773
3869.458008,3263.867188
3869.311523,3263.964844
3869.409180,3263.964844
3869.238281,3263.842773
3869.360352,3263.818359
3869.458008,3263.647461
3869.555664,3263.793945
3869.555664,3263.745117
3869.311523,3263.842773
3869.360352,3264.086914
3870.043945,3265.405273
3870.361328,3266.064453
3870.629883,3266.308594
3870.898438,3266.699219
3870.849609,3266.308594
3871.118164,3266.137695
3870.458984,3265.844727
3870.556641,3265.917969
3870.458984,3265.893555
3870.605469,3265.771484
3870.727539,3265.747070
3870.532227,3265.698242
3870.507813,3265.502930
3870.581055,3265.405273
3870.654297,3265.722656
3870.385742,3265.966797
3870.727539,3265.991211
3871.020508,3265.869141
3870.874023,3265.771484
3870.800781,3265.771484
3870.996094,3265.820313
3870.996094,3265.527344
3870.800781,3265.332031
3870.629883,3265.380859
3870.727539,3265.405273
3870.874023,3265.234375
3870.629883,3265.234375
3870.703125,3265.234375
3870.483398,3265.063477
3870.581055,3265.112305
3870.507813,3264.916992
3870.288086,3264.794922
3870.556641,3264.672852
3870.361328,3264.501953
3870.410156,3264.624023
3870.581055,3264.526367
3870.410156,3264.282227
3870.239258,3264.160156
3870.190430,3264.013672
3870.263672,3264.160156
3870.214844,3264.135742
3870.117188,3264.233398
3870.214844,3264.086914
3870.410156,3263.940430
3870.410156,3263.940430
3870.458984,3263.842773
3870.336914,3263.940430
3870.483398,3263.891602
3870.385742,3264.404297
3870.581055,3265.209961
3871.362305,3265.942383
3871.630859,3266.455078
3871.606445,3266.235352
3871.777344,3266.259766
3871.655273,3266.113281
3871.313477,3266.113281
3871.386719,3265.893555
3871.362305,3266.113281
3871.630859,3265.795898
3871.459961,3265.405273
3871.484375,3265.185547
3871.386719,3265.087891
3871.044922,3265.283203
3871.093750,3265.429688
3871.264648,3265.332031
3871.215820,3264.990234
3871.362305,3265.234375
3871.435547,3265.185547
3871.386719,3265.014648
3871.289063,3265.283203
3871.264648,3265.039063
3871.215820,3264.892578
3870.874023,3264.575195
3870.825195,3264.843750
3870.996094,3264.501953
3870.703125,3264.404297
3870.507813,3264.062500
3870.532227,3264.379883
3870.507813,3264.404297
3870.483398,3264.477539
3870.629883,3264.160156
3870.654297,3264.306641
3870.483398,3264.038086
3870.507813,3264.233398
3870.556641,3264.086914
3870.336914,3263.867188
3870.288086,3264.086914
3870.068359,3263.867188
3869.995117,3263.769531
3869.970703,3263.842773
3869.873047,3263.769531
3869.970703,3263.891602
3869.750977,3263.476563
3869.921875,3263.647461
3869.897461,3263.330078
3869.970703,3263.232422
3869.848633,3263.818359
3870.312500,3264.746094
3871.166992,3265.869141
3871.118164,3266.430664
3871.386719,3266.625977
3871.411133,3266.333008
3871.166992,3265.820313
3871.020508,3265.844727
3871.191406,3265.600586
3870.849609,3265.673828
3870.947266,3266.088867
3871.069336,3265.893555
3871.020508,3266.040039
3871.166992,3265.673828
3871.289063,3266.040039
3871.215820,3265.917969
3871.240234,3265.844727
3871.313477,3265.917969
3871.020508,3266.137695
3871.142578,3266.015625
3871.289063,3265.893555
3871.215820,3265.893555
3871.166992,3265.429688
3871.118164,3265.478516
3871.093750,3265.478516
3870.629883,3265.161133
3870.654297,3265.478516
3870.629883,3265.576172
3870.727539,3265.087891
3870.971680,3265.014648
3870.532227,3265.063477
3870.458984,3264.843750
3870.581055,3264.819336
3870.507813,3264.770508
3870.361328,3264.721680
3870.483398,3264.575195
3870.410156,3264.550781
3870.483398,3264.501953
3870.312500,3264.306641
3870.190430,3264.111328
3870.385742,3263.916016
3870.410156,3263.916016
3870.263672,3263.867188
3870.361328,3263.842773
3870.117188,3263.891602
3870.239258,3263.891602
3870.312500,3263.842773
3870.214844,3263.720703
3870.336914,3263.549805
3870.458984,3263.842773
3870.166016,3264.233398
3870.654297,3265.429688
3871.484375,3266.137695
3871.459961,3266.479492
3871.435547,3266.455078
3871.557617,3266.235352
3871.459961,3266.040039
3871.166992,3266.064453
3871.264648,3265.771484
3871.215820,3265.893555
3871.142578,3266.040039
3871.337891,3266.040039
3871.166992,3265.576172
3871.289063,3265.649414
3871.215820,3265.795898
3871.044922,3265.649414
3871.142578,3265.551758
3871.142578,3265.283203
3871.020508,3265.454102
3870.898438,3265.161133
3870.849609,3265.039063
3870.849609,3265.063477
3870.825195,3264.965820
3870.874023,3264.624023
3870.849609,3264.355469
3870.532227,3264.160156
3870.581055,3263.867188
3870.605469,3263.916016
3870.410156,3263.745117
3870.581055,3263.549805
3870.458984,3263.891602
3870.581055,3263.500977
3870.263672,3263.452148
3870.336914,3263.085938
3870.190430,3263.208008
3870.312500,3263.110352
3870.043945,3262.915039
3870.092773,3262.475586
3869.873047,3262.597656
3869.848633,3262.939453
3869.897461,3262.744141
3869.946289,3262.524414
3869.677734,3262.426758
3869.750977,3262.402344
3869.848633,3262.109375
3869.750977,3262.158203
3869.433594,3262.329102
3869.604492,3262.426758
3869.653320,3262.231445
3869.677734,3262.280273
3869.628906,3262.768555
3870.141602,3263.671875
3870.703125,3264.819336
3871.240234,3265.698242
3871.435547,3265.917969
3871.093750,3265.625000
3871.435547,3265.234375
3871.386719,3265.283203
3871.386719,3265.332031
3871.142578,3265.112305
3871.215820,3264.892578
3871.215820,3264.990234
3870.971680,3264.892578
3870.922852,3264.794922
3871.142578,3264.526367
3871.337891,3264.477539
3870.996094,3264.208984
3870.825195,3264.526367
3870.874023,3263.964844
3870.751953,3263.842773
3870.971680,3263.696289
3870.556641,3263.696289
3870.849609,3263.525391
3870.849609,3263.452148
3870.751953,3263.208008
3870.727539,3263.134766
3870.556641,3263.134766
3870.678711,3262.866211
3870.556641,3262.939453
3870.336914,3262.622070
3870.458984,3262.426758
3870.410156,3262.475586
3870.361328,3262.695313
3870.288086,3262.573242
3870.312500,3262.524414
3870.483398,3262.744141
3870.410156,3262.500000
3870.410156,3262.524414
3870.263672,3262.646484
3870.092773,3262.622070
3870.263672,3262.524414
3870.263672,3262.817383
3870.043945,3262.646484
3870.092773,3262.475586
3870.043945,3262.451172
3870.068359,3262.597656
3869.995117,3262.622070
3870.141602,3263.085938
3870.556641,3264.453125
3870.947266,3265.234375
3871.337891,3265.625000
3871.215820,3265.576172
3871.313477,3265.234375
3870.922852,3265.185547
3871.142578,3264.770508
3871.166992,3265.161133
3870.898438,3265.234375
3871.289063,3265.283203
3871.411133,3265.625000
3871.142578,3265.576172
3871.069336,3265.380859
3871.191406,3265.209961
3871.264648,3265.380859
3871.069336,3265.063477
3871.020508,3265.161133
3871.240234,3264.721680
3871.264648,3264.916992
3871.142578,3264.941406
3871.118164,3264.648438
3871.044922,3264.355469
3871.166992,3264.550781
3871.044922,3264.428711
3871.313477,3264.331055
3870.971680,3264.086914
3871.093750,3263.842773
3870.971680,3263.696289
3871.044922,3263.842773
3871.191406,3264.038086
3871.142578,3263.696289
3870.947266,3263.671875
3871.118164,3263.720703
3871.093750,3263.549805
3871.313477,3263.818359
3871.362305,3263.598633
3871.240234,3263.476563
3871.093750,3263.427734
3871.411133,3263.623047
3871.313477,3263.281250
3871.362305,3263.281250
3871.166992,3262.890625
3871.313477,3263.305664
3871.215820,3263.037109
3871.020508,3262.841797
3871.044922,3263.574219
3871.704102,3264.916992
3872.045898,3265.893555
3872.436523,3266.259766
3872.338867,3266.015625
3872.265625,3265.917969
3872.241211,3265.722656
3872.094727,3265.478516
3871.850586,3265.478516
3872.045898,3265.527344
3872.021484,3265.893555
3872.192383,3265.649414
3872.070313,3265.356445
3871.875000,3265.161133
3871.801758,3265.356445
3871.826172,3265.380859
3871.606445,3265.258789
3871.777344,3265.454102
3871.850586,3265.307617
3871.850586,3265.185547
3871.777344,3265.332031
3871.728516,3265.112305
3871.704102,3265.234375
3871.704102,3264.868164
3871.655273,3265.039063
3871.655273,3264.599609
3871.508789,3264.746094
3871.362305,3264.453125
3871.289063,3264.404297
3871.533203,3264.624023
3871.362305,3264.575195
3871.289063,3264.672852
3871.362305,3264.501953
3871.166992,3264.355469
3871.191406,3264.306641
3871.240234,3264.038086
3871.020508,3264.184570
3871.093750,3263.964844
3870.996094,3263.842773
3871.093750,3263.989258
3871.093750,3263.964844
3870.996094,3263.500977
3870.922852,3263.647461
3870.825195,3263.525391
3870.849609,3263.549805
3870.947266,3263.208008
3871.118164,3263.500977
3870.727539,3263.159180
3870.971680,3263.183594
3870.971680,3263.842773
3871.289063,3264.965820
3872.143555,3265.942383
3872.558594,3266.552734
3872.631836,3266.674805
3872.753906,3266.479492
3872.802734,3266.381836
3872.583008,3266.186523
3872.412109,3266.308594
3872.680664,3266.503906
3872.900391,3266.552734
3873.046875,3266.821289
3873.022461,3266.430664
3873.095703,3266.381836
3873.022461,3266.333008
3872.924805,3266.210938
3872.924805,3266.040039
3872.729492,3266.088867
3872.827148,3266.088867
3872.875977,3266.064453
3872.827148,3265.820313
3872.924805,3265.771484
3872.851563,3265.771484
3872.949219,3265.844727
3872.753906,3265.625000
3872.753906,3265.673828
3872.827148,3265.625000
3872.851563,3265.551758
3872.558594,3265.356445
3872.680664,3265.185547
3872.778320,3265.283203
3872.753906,3265.649414
3872.827148,3265.283203
3872.778320,3265.722656
3872.802734,3265.576172
3872.924805,3265.380859
3872.656250,3265.332031
3872.705078,3265.258789
3872.753906,3265.136719
3872.778320,3265.039063
3872.753906,3264.916992
3872.851563,3265.014648
3872.802734,3264.916992
3872.680664,3265.112305
3872.583008,3264.941406
3872.705078,3264.746094
3872.851563,3264.868164
3872.900391,3264.672852
3872.924805,3265.039063
3873.168945,3266.137695
3873.828125,3267.089844
3874.267578,3267.822266
3874.462891,3267.797852
3874.487305,3267.553711
3874.218750,3267.456055
3874.365234,3267.456055
3874.072266,3266.577148
3874.047852,3266.845703
3874.194336,3266.601563
3873.828125,3266.699219
3874.072266,3266.406250
3873.925781,3266.455078
3873.754883,3266.625977
3873.925781,3266.284180
3873.632813,3266.235352
3873.730469,3266.430664
3873.706055,3266.455078
3873.876953,3266.381836
3873.632813,3266.137695
3873.754883,3266.601563
3873.901367,3266.333008
3873.828125,3266.503906
3873.754883,3266.528320
3873.925781,3266.308594
3873.828125,3266.162109
3873.437500,3265.820313
3873.535156,3265.991211
3873.413086,3265.747070
3873.461914,3265.600586
3873.364258,3265.576172
3873.266602,3265.747070
3873.266602,3265.893555
3873.144531,3265.649414
3873.461914,3265.551758
3873.193359,3265.722656
3873.291016,3265.332031
3873.339844,3265.380859
3873.120117,3265.209961
3873.144531,3265.112305
3872.998047,3265.087891
3873.046875,3264.819336
3872.998047,3264.965820
3872.778320,3265.258789
3873.242188,3266.235352
3873.950195,3267.431641
3874.658203,3267.895508
3874.462891,3267.895508
3874.291992,3267.602539
3874.267578,3267.114258
3874.096680,3267.211914
3873.925781,3267.114258
3873.999023,3266.723633
3874.072266,3266.992188
3874.072266,3267.041016
3874.291992,3266.943359
3874.096680,3266.674805
3873.999023,3266.821289
3873.974609,3266.577148
3873.974609,3266.772461
3874.511719,3266.748047
3874.267578,3266.699219
3874.316406,3266.552734
3874.267578,3266.308594
3874.218750,3266.503906
3874.365234,3266.406250
3874.145508,3266.357422
3873.999023,3266.210938
3874.169922,3266.235352
3874.365234,3266.357422
3874.096680,3266.235352
3874.218750,3266.259766
3874.194336,3266.284180
3874.194336,3266.235352
3874.365234,3266.015625
3874.438477,3266.113281
3874.194336,3265.844727
3874.267578,3265.917969
3874.267578,3265.869141
3874.023438,3265.869141
3873.901367,3265.869141
3874.169922,3265.576172
3873.828125,3265.649414
3873.901367,3265.527344
3873.681641,3265.209961
3873.925781,3265.307617
3873.779297,3265.136719
3873.535156,3265.454102
3873.803711,3266.357422
3874.365234,3267.285156
3875.170898,3268.261719
3875.244141,3268.432617
3875.024414,3268.090820
3874.829102,3267.797852
3874.511719,3267.504883
3874.243164,3267.480469
3874.487305,3267.773438
3874.633789,3267.626953
3874.316406,3267.553711
3874.438477,3267.578125
3874.389648,3267.553711
3874.438477,3267.285156
3874.121094,3267.333984
3874.121094,3267.163086
3874.072266,3267.016602
3874.023438,3266.894531
3874.169922,3266.943359
3873.901367,3266.748047
3873.901367,3266.870117
3873.706055,3266.674805
3873.730469,3266.650391
3874.047852,3266.430664
3873.486328,3266.625977
3873.706055,3266.137695
3873.754883,3266.210938
3873.461914,3265.795898
3873.413086,3266.040039
3873.510742,3265.942383
3873.339844,3265.917969
3873.486328,3265.502930
3873.413086,3265.405273
3873.266602,3265.234375
3873.193359,3265.112305
3873.193359,3265.112305
3873.144531,3265.014648
3873.168945,3265.380859
3873.291016,3264.916992
3872.998047,3265.039063
3873.388672,3265.039063
3873.339844,3264.941406
3873.120117,3264.770508
3873.217773,3264.941406
3873.242188,3265.063477
3873.730469,3266.284180
3874.267578,3267.407227
3874.658203,3268.041992
3874.877930,3268.115234
3874.853516,3267.822266
3874.707031,3267.553711
3874.633789,3267.407227
3874.487305,3267.333984
3874.584961,3267.529297
3874.609375,3267.529297
3874.731445,3267.456055
3874.462891,3267.382813
3874.511719,3266.772461
3874.218750,3266.650391
3874.145508,3266.552734
3874.096680,3266.601563
3874.096680,3266.406250
3873.950195,3266.162109
3873.925781,3265.991211
3873.706055,3265.917969
3873.852539,3265.991211
3873.413086,3265.820313
3873.632813,3265.673828
3873.754883,3265.771484
3873.559570,3265.380859
3873.730469,3265.502930
3873.437500,3265.454102
3873.291016,3265.161133
3873.364258,3265.356445
3873.437500,3265.136719
3873.437500,3264.746094
3873.461914,3264.916992
3873.413086,3264.746094
3873.315430,3264.819336
3873.510742,3264.721680
3873.291016,3264.550781
3873.095703,3264.233398
3873.071289,3264.062500
3873.217773,3263.989258
3872.973633,3264.257813
3873.291016,3264.916992
3873.754883,3265.795898
3874.145508,3266.845703
3874.633789,3266.870117
3874.731445,3266.528320
3874.194336,3266.210938
3874.389648,3265.893555
3874.072266,3265.722656
3874.121094,3265.820313
3874.023438,3266.113281
3874.169922,3266.357422
3874.316406,3265.844727
3874.072266,3265.795898
3874.145508,3265.942383
3874.047852,3266.015625
3874.316406,3265.893555
3874.047852,3265.942383
3874.267578,3265.942383
3874.462891,3265.942383
3874.047852,3265.942383
3874.047852,3265.771484
3873.852539,3265.502930
3873.974609,3265.502930
3873.828125,3265.356445
3873.828125,3265.307617
3873.901367,3265.429688
3874.023438,3265.283203
3873.950195,3265.454102
3873.876953,3265.332031
3873.999023,3265.356445
3874.096680,3265.087891
3873.999023,3264.941406
3874.121094,3264.794922
3873.925781,3264.794922
3874.023438,3264.794922
3873.974609,3264.770508
3873.950195,3264.916992
3873.803711,3264.501953
3873.999023,3264.672852
3873.706055,3264.624023
3873.681641,3264.453125
3873.901367,3264.550781
3873.974609,3265.234375
3874.340820,3266.455078
3875.122070,3267.407227
3875.292969,3267.993164
3875.683594,3267.651367
3875.439453,3267.651367
3875.219727,3266.992188
3874.975586,3267.016602
3875.146484,3266.748047
3875.122070,3266.845703
3875.000000,3267.138672
3874.926758,3266.821289
3874.755859,3266.479492
3874.877930,3266.479492
3874.780273,3266.284180
3874.633789,3266.333008
3874.609375,3266.259766
3874.829102,3266.308594
3874.707031,3265.991211
3874.682617,3266.015625
3874.584961,3266.186523
3874.633789,3265.844727
3874.584961,3265.844727
3874.560547,3265.673828
3874.511719,3265.600586
3874.487305,3265.502930
3874.414063,3265.576172
3874.462891,3265.551758
3874.414063,3265.527344
3874.267578,3265.307617
3874.389648,3265.502930
3874.584961,3265.698242
3874.682617,3265.356445
3874.365234,3265.234375
3874.023438,3265.014648
3874.145508,3265.063477
3874.072266,3264.770508
3873.925781,3264.868164
3873.779297,3264.990234
3873.925781,3264.868164
3873.950195,3264.916992
3873.779297,3264.550781
3873.974609,3264.575195
3873.925781,3264.770508
3873.925781,3264.477539
3873.901367,3264.770508
3873.901367,3264.477539
3874.023438,3264.086914
3873.999023,3264.062500
3873.876953,3264.013672
3874.047852,3264.257813
3874.072266,3265.258789
3874.731445,3266.479492
3875.341797,3267.480469
3875.439453,3267.529297
3875.439453,3267.187500
3875.195313,3266.821289
3875.219727,3266.870117
3875.048828,3266.967773
3875.073242,3267.114258
3875.170898,3267.333984
3875.024414,3267.309570
3875.000000,3267.187500
3875.024414,3267.285156
3874.975586,3266.992188
3874.633789,3267.016602
3874.682617,3267.236328
3874.926758,3267.211914
3874.902344,3266.943359
3874.780273,3267.114258
3874.975586,3266.967773
3874.755859,3266.796875
3875.097656,3266.845703
3875.146484,3266.674805
3874.755859,3266.455078
3875.244141,3266.552734
3875.292969,3266.723633
3875.244141,3266.772461
3875.268555,3266.430664
3875.317383,3266.528320
3875.415039,3266.552734
3875.585938,3266.381836
3875.561523,3266.333008
3875.317383,3265.966797
3875.561523,3265.991211
3875.341797,3265.771484
3875.415039,3265.869141
3875.292969,3265.771484
3875.610352,3265.576172
3875.708008,3265.527344
3875.439453,3265.600586
3875.415039,3265.478516
3875.195313,3265.527344
3875.292969,3265.307617
3875.366211,3265.063477
3874.926758,3265.112305
3875.439453,3265.234375
3875.463867,3266.015625
3875.683594,3267.163086
3876.098633,3268.017578
3876.293945,3268.139648
3876.293945,3267.944336
3876.147461,3267.675781
3875.927734,3267.773438
3875.903320,3267.382813
3875.781250,3267.407227
3875.561523,3267.382813
3875.732422,3267.382813
3875.732422,3267.407227
3875.415039,3267.138672
3875.244141,3266.992188
3875.146484,3266.918945
3875.122070,3267.041016
3875.048828,3266.845703
3874.951172,3266.699219
3875.000000,3266.699219
3874.829102,3266.674805
3875.024414,3266.357422
3874.951172,3266.479492
3874.877930,3266.406250
3874.829102,3266.284180
3874.853516,3266.308594
3874.829102,3266.162109
3874.682617,3265.893555
3874.755859,3265.795898
3874.780273,3265.942383
3874.926758,3265.844727
3874.682617,3265.820313
3874.707031,3265.820313
3874.682617,3265.527344
3874.267578,3265.332031
3874.462891,3265.380859
3874.340820,3265.307617
3874.658203,3265.332031
3874.462891,3265.283203
3874.462891,3265.185547
3874.243164,3264.916992
3874.267578,3264.746094
3874.121094,3264.672852
3873.950195,3264.794922
3874.194336,3265.063477
3874.462891,3266.284180
3875.073242,3267.382813
3875.659180,3268.066406
3875.561523,3267.919922
3875.781250,3267.504883
3875.488281,3267.211914
3875.390625,3267.211914
3875.512695,3267.285156
3875.512695,3267.187500
3875.512695,3267.529297
3875.585938,3267.431641
3875.708008,3267.065430
3875.561523,3266.918945
3875.292969,3267.065430
3875.097656,3266.333008
3875.268555,3266.821289
3875.122070,3266.577148
3875.146484,3266.601563
3874.926758,3267.016602
3875.122070,3266.601563
3874.877930,3266.625977
3874.902344,3266.455078
3874.902344,3266.235352
3874.926758,3266.235352
3874.560547,3266.284180
3874.707031,3266.137695
3874.584961,3266.064453
3874.560547,3266.235352
3874.707031,3266.479492
3874.829102,3266.113281
3874.829102,3266.308594
3874.877930,3266.040039
3874.731445,3266.040039
3874.707031,3265.869141
3874.682617,3265.600586
3874.511719,3265.502930
3874.389648,3265.478516
3874.340820,3265.356445
3874.243164,3265.161133
3874.340820,3265.185547
3874.218750,3264.941406
3874.389648,3265.014648
3874.267578,3264.721680
3874.072266,3264.648438
3874.291992,3264.355469
3874.316406,3264.550781
3874.291992,3264.331055
3874.047852,3264.233398
3874.340820,3264.282227
3874.291992,3264.672852
3874.829102,3265.869141
3875.659180,3267.138672
3875.927734,3267.553711
3876.464844,3267.553711
3876.220703,3267.285156
3875.927734,3267.187500
3875.903320,3266.723633
3875.634766,3266.528320
3875.708008,3266.772461
3875.878906,3266.772461
3876.098633,3266.845703
3876.049805,3266.723633
3875.732422,3266.479492
3875.732422,3266.259766
3875.830078,3266.284180
3875.561523,3266.040039
3875.634766,3266.235352
3875.683594,3266.015625
3875.781250,3265.991211
3875.512695,3265.771484
3875.439453,3265.844727
3875.390625,3265.722656
3875.317383,3265.429688
3875.561523,3265.283203
3875.561523,3265.380859
3875.512695,3265.185547
3875.341797,3265.234375
3875.341797,3265.405273
3875.292969,3265.332031
3875.195313,3265.039063
3875.146484,3265.039063
3875.244141,3265.380859
3875.097656,3265.283203
3875.170898,3264.941406
3875.219727,3265.087891
3875.073242,3264.990234
3874.804688,3264.746094
3874.926758,3264.770508
3874.731445,3264.916992
3874.780273,3264.599609
3874.755859,3264.526367
3874.780273,3264.428711
3874.707031,3264.331055
3874.658203,3264.526367
3874.731445,3264.306641
3874.560547,3264.233398
3874.633789,3264.526367
3874.975586,3265.893555
3875.659180,3266.674805
3876.171875,3267.407227
3876.123047,3267.700195
3876.489258,3267.333984
3876.025391,3266.967773
3876.049805,3266.918945
3875.830078,3266.870117
3875.756836,3267.089844
3875.805664,3266.894531
3875.952148,3267.016602
3875.878906,3266.870117
3875.976563,3266.625977
3875.561523,3266.357422
3875.634766,3266.577148
3875.634766,3266.503906
3875.561523,3266.479492
3875.732422,3266.479492
3875.708008,3266.162109
3875.561523,3266.479492
3875.634766,3266.357422
3875.537109,3266.284180
3875.537109,3266.040039
3875.366211,3266.015625
3875.341797,3265.893555
3875.244141,3265.649414
3875.268555,3265.332031
3875.268555,3265.307617
3875.219727,3265.307617
3874.975586,3265.087891
3875.170898,3264.843750
3875.024414,3265.234375
3875.244141,3265.161133
3875.341797,3265.576172
3875.195313,3265.136719
3875.317383,3264.892578
3875.341797,3264.672852
3875.341797,3264.746094
3875.195313,3264.526367
3875.146484,3264.550781
3875.048828,3264.721680
3875.146484,3264.355469
3874.829102,3264.331055
3875.122070,3264.038086
3874.902344,3264.648438
3875.390625,3265.942383
3876.074219,3266.918945
3876.367188,3267.480469
3876.416016,3267.578125
3876.513672,3267.333984
3876.269531,3266.894531
3876.293945,3266.748047
3876.000977,3266.845703
3876.049805,3266.748047
3876.025391,3266.772461
3876.025391,3266.845703
3876.171875,3266.601563
3875.976563,3266.552734
3875.976563,3266.455078
3875.830078,3266.503906
3875.634766,3266.625977
3876.049805,3266.259766
3875.830078,3266.552734
3875.756836,3266.406250
3875.634766,3266.357422
3875.708008,3266.162109
3875.708008,3266.088867
3875.634766,3266.113281
3875.634766,3265.991211
3875.512695,3265.722656
3875.463867,3265.844727
3875.634766,3265.502930
3875.610352,3265.405273
3875.659180,3265.161133
3875.292969,3265.429688
3875.390625,3265.283203
3875.537109,3265.136719
3875.390625,3265.185547
3875.610352,3265.039063
3875.292969,3264.624023
3875.488281,3264.770508
3875.439453,3264.379883
3875.415039,3264.331055
3875.366211,3264.282227
3875.195313,3264.257813
3875.244141,3263.891602
3874.926758,3264.135742
3874.951172,3263.940430
3875.000000,3264.086914
3875.097656,3263.671875
3874.829102,3263.769531
3875.097656,3263.598633
3875.000000,3264.184570
3875.390625,3265.234375
3875.854492,3266.333008
3876.245117,3267.016602
3876.464844,3266.967773
3876.220703,3266.674805
3876.025391,3266.162109
3875.927734,3266.064453
3875.634766,3266.088867
3875.830078,3266.015625
3875.732422,3266.137695
3875.512695,3265.893555
3875.708008,3265.795898
3875.585938,3265.820313
3875.585938,3265.771484
3875.439453,3265.551758
3875.341797,3265.527344
3875.488281,3265.502930
3875.292969,3265.356445
3875.512695,3265.454102
3875.512695,3265.576172
3875.317383,3265.551758
3875.170898,3265.039063
3875.122070,3264.770508
3874.902344,3264.648438
3874.755859,3264.233398
3874.389648,3263.940430
3874.438477,3263.598633
3874.194336,3263.232422
3874.096680,3263.110352
3874.169922,3263.256836
3873.974609,3263.256836
3874.047852,3263.085938
3873.999023,3263.159180
3874.072266,3263.159180
3873.999023,3262.963867
3873.925781,3262.939453
3874.023438,3262.988281
3874.169922,3262.817383
3874.194336,3263.159180
3874.438477,3262.915039
3874.438477,3262.670898
3874.340820,3262.597656
3874.316406,3262.646484
3874.389648,3262.548828
3874.340820,3262.500000
3874.487305,3262.695313
3874.487305,3262.841797
3874.365234,3262.304688
3874.462891,3262.622070
3874.755859,3263.525391
3875.341797,3264.916992
3875.854492,3266.015625
3876.098633,3266.333008
3876.245117,3266.210938
3875.927734,3265.869141
3876.025391,3265.747070
3875.927734,3265.673828
3875.952148,3265.844727
3875.927734,3265.698242
3875.854492,3265.698242
3875.805664,3265.722656
3875.952148,3265.405273
3875.854492,3265.234375
3875.854492,3265.478516
3875.952148,3265.380859
3876.147461,3265.405273
3876.049805,3265.258789
3876.245117,3265.307617
3876.025391,3265.380859
3876.538086,3265.527344
3876.416016,3265.332031
3876.464844,3265.307617
3876.196289,3265.307617
3876.464844,3265.136719
3876.318359,3264.916992
3876.196289,3264.843750
3876.196289,3264.770508
3875.976563,3264.575195
3876.049805,3264.477539
3876.000977,3264.453125
3875.903320,3264.477539
3875.903320,3264.355469
3875.756836,3264.306641
3875.756836,3263.964844
3875.634766,3263.989258
3875.537109,3263.720703
3875.317383,3263.671875
3875.390625,3263.842773
3875.170898,3263.720703
3875.195313,3263.305664
3875.048828,3263.281250
3874.975586,3263.452148
3874.975586,3263.330078
3875.073242,3263.476563
3875.317383,3264.965820
3876.269531,3266.186523
3876.538086,3266.503906
3876.879883,3266.552734
3876.342773,3266.064453
3876.049805,3266.137695
3876.147461,3265.966797
3875.903320,3265.917969
3875.903320,3265.673828
3875.805664,3265.625000
3875.952148,3265.942383
3876.025391,3265.942383
3876.025391,3265.478516
3875.732422,3265.576172
3875.976563,3265.747070
3875.854492,3265.673828
3876.074219,3265.673828
3875.781250,3265.625000
3875.952148,3265.429688
3875.976563,3265.087891
3875.732422,3265.209961
3875.781250,3265.087891
3875.830078,3265.014648
3875.756836,3264.941406
3875.830078,3264.526367
3875.537109,3264.477539
3875.781250,3264.477539
3875.708008,3264.355469
3875.756836,3264.355469
3875.512695,3264.404297
3875.659180,3264.599609
3875.659180,3264.550781
3875.659180,3264.404297
3875.659180,3264.501953
3875.512695,3264.428711
3875.463867,3264.208984
3875.292969,3264.160156
3875.195313,3263.671875
3875.219727,3263.745117
3875.097656,3263.842773
3875.024414,3263.305664
3875.073242,3263.500977
3874.926758,3263.476563
3874.926758,3263.720703
3875.024414,3263.305664
3875.048828,3263.256836
3874.951172,3263.305664
3875.073242,3264.331055
3875.610352,3265.380859
3876.147461,3266.259766
3876.318359,3265.869141
3876.269531,3265.844727
3876.098633,3265.649414
3876.025391,3264.965820
3876.049805,3264.843750
3876.147461,3265.136719
3876.147461,3265.356445
3876.245117,3265.380859
3876.318359,3265.039063
3876.000977,3264.990234
3876.220703,3264.843750
3876.147461,3264.746094
3876.049805,3264.868164
3875.878906,3264.770508
3875.952148,3264.843750
3875.708008,3264.550781
3875.708008,3264.306641
3875.683594,3264.257813
3875.634766,3264.233398
3875.488281,3264.160156
3875.366211,3264.013672
3875.512695,3263.867188
3875.366211,3263.745117
3875.195313,3263.647461
3875.439453,3263.696289
3874.853516,3263.696289
3874.975586,3263.476563
3874.804688,3263.476563
3874.926758,3263.330078
3875.073242,3263.305664
3874.951172,3263.256836
3874.829102,3263.085938
3875.024414,3262.768555
3874.780273,3262.890625
3874.658203,3262.866211
3874.829102,3262.719727
3874.731445,3262.695313
3874.633789,3262.573242
3874.755859,3262.622070
3874.536133,3262.597656
3874.780273,3262.402344
3874.829102,3262.255859
3874.780273,3262.597656
3874.780273,3263.037109
3875.439453,3264.135742
3875.708008,3265.209961
3876.269531,3265.869141
3876.562500,3266.162109
3876.440430,3265.844727
3876.269531,3265.625000
3876.367188,3265.502930
3876.269531,3265.625000
3876.269531,3265.649414
3876.416016,3265.795898
3876.586914,3265.747070
3876.318359,3265.942383
3876.367188,3265.844727
3876.538086,3265.698242
3876.464844,3265.747070
3876.586914,3265.991211
3876.708984,3265.649414
3876.635742,3266.064453
3876.562500,3265.820313
3876.806641,3265.795898
3876.391602,3265.820313
3876.318359,3265.307617
3876.391602,3265.185547
3876.049805,3264.941406
3876.074219,3265.014648
3876.000977,3264.892578
3875.585938,3265.014648
3875.732422,3264.550781
3875.439453,3264.575195
3875.610352,3264.233398
3875.512695,3264.526367
3875.561523,3264.501953
3875.268555,3264.355469
3875.634766,3264.379883
3875.341797,3264.282227
3875.341797,3264.331055
3875.439453,3264.575195
3875.537109,3264.550781
3875.512695,3264.428711
3875.512695,3264.282227
3875.708008,3264.208984
3875.781250,3264.624023
3875.927734,3265.112305
3876.538086,3266.113281
3876.953125,3267.016602
3877.392578,3267.504883
3877.563477,3267.358398
3877.539063,3267.382813
3877.294922,3266.772461
3877.221680,3266.577148
3877.270508,3266.796875
3877.270508,3266.796875
3877.050781,3266.699219
3877.392578,3266.479492
3877.148438,3266.259766
3876.806641,3266.137695
3876.782227,3266.137695
3876.879883,3266.430664
3876.879883,3266.381836
3877.148438,3266.040039
3876.953125,3265.844727
3876.806641,3265.527344
3876.953125,3265.893555
3876.977539,3265.795898
3877.026367,3265.795898
3877.026367,3265.942383
3876.757813,3265.747070
3877.050781,3265.893555
3876.831055,3265.600586
3877.026367,3265.527344
3877.001953,3265.893555
3876.879883,3265.600586
3876.953125,3265.722656
3877.099609,3265.600586
3877.197266,3265.600586
3877.001953,3265.307617
3876.977539,3265.576172
3877.099609,3265.380859
3877.148438,3265.478516
3876.806641,3265.405273
3877.050781,3265.356445
3877.099609,3265.356445
3877.294922,3265.478516
3877.172852,3265.502930
3877.270508,3265.820313
3877.661133,3266.894531
3878.320313,3268.530273
3878.906250,3269.506836
3879.394531,3269.824219
3879.370117,3269.628906
3879.492188,3269.750977
3879.248047,3269.091797
3879.223633,3268.896484
3878.881836,3268.920898
3878.955078,3268.945313
3878.857422,3268.676758
3878.833008,3268.530273
3878.662109,3268.310547
3878.442383,3268.212891
3878.442383,3268.115234
3878.564453,3268.188477
3878.564453,3268.115234
3878.344727,3268.090820
3878.515625,3267.944336
3878.271484,3267.822266
3878.222656,3267.675781
3878.271484,3267.529297
3878.198242,3267.431641
3878.222656,3267.700195
3878.369141,3267.626953
3878.442383,3267.797852
3878.198242,3267.529297
3878.125000,3267.504883
3877.880859,3267.260742
3877.880859,3267.309570
3877.954102,3266.943359
3878.149414,3267.211914
3878.125000,3267.260742
3877.954102,3267.236328
3877.709961,3267.041016
3877.880859,3267.138672
3877.807617,3267.041016
3877.929688,3267.114258
3877.905273,3267.114258
3877.832031,3266.821289
3877.954102,3266.796875
3878.051758,3266.479492
3877.880859,3266.259766
3877.929688,3266.186523
3877.709961,3266.235352
3877.954102,3266.699219
3878.247070,3268.017578
3879.125977,3269.482422
3879.687500,3270.458984
3880.175781,3270.458984
3879.858398,3270.019531
3879.492188,3269.873047
3879.565430,3269.848633
3879.736328,3269.995117
3880.078125,3270.239258
3879.858398,3270.312500
3879.760742,3270.141602
3879.785156,3269.750977
3879.614258,3269.921875
3879.541016,3270.166016
3879.541016,3269.702148
3879.418945,3269.628906
3879.541016,3269.531250
3879.174805,3269.482422
3879.296875,3269.726563
3879.345703,3269.604492
3879.443359,3269.384766
3879.150391,3269.311523
3879.052734,3268.701172
3878.906250,3269.116211
3878.881836,3268.823242
3878.808594,3268.554688
3878.833008,3268.603516
3878.881836,3268.505859
3878.759766,3268.505859
3878.930664,3268.457031
3878.955078,3268.310547
3878.784180,3268.408203
3878.808594,3268.334961
3878.955078,3268.164063
3878.662109,3268.188477
3878.808594,3268.188477
3878.808594,3267.993164
3878.637695,3267.651367
3878.881836,3267.651367
3878.833008,3267.724609
3878.637695,3267.553711
3878.540039,3266.894531
3878.564453,3267.236328
3878.344727,3266.870117
3878.491211,3267.456055
3878.955078,3268.872070
3879.516602,3270.629883
3880.371094,3271.533203
3880.761719,3271.582031
3880.590820,3271.166992
3880.273438,3270.800781
3880.078125,3270.800781
3880.004883,3270.751953
3880.053711,3270.800781
3880.053711,3271.069336
3880.126953,3270.971680
3880.102539,3271.142578
3880.029297,3271.020508
3880.175781,3270.996094
3880.102539,3270.874023
3880.249023,3270.825195
3880.078125,3271.044922
3880.078125,3270.898438
3879.931641,3271.313477
3880.175781,3270.996094
3879.956055,3270.507813
3879.931641,3270.288086
3879.907227,3270.141602
3879.882813,3269.848633
3879.516602,3269.287109
3879.736328,3269.799805
3879.467773,3269.238281
3879.687500,3269.287109
3879.614258,3269.189453
3879.687500,3269.213867
3879.833984,3269.067383
3879.711914,3268.994141
3879.663086,3268.847656
3879.492188,3268.872070
3879.711914,3269.018555
3879.638672,3268.554688
3879.516602,3268.359375
3879.345703,3268.457031
3879.296875,3268.164063
3879.150391,3268.139648
3879.223633,3268.090820
3879.052734,3267.797852
3879.174805,3267.651367
3878.930664,3267.919922
3879.028320,3269.165039
3879.663086,3270.507813
3880.444336,3271.752930
3880.834961,3272.436523
3881.079102,3272.607422
3880.908203,3272.070313
3880.859375,3272.167969
3880.932617,3271.997070
3880.566406,3271.972656
3880.908203,3272.485352
3881.152344,3272.509766
3880.981445,3272.290039
3880.810547,3272.070313
3880.688477,3271.850586
3880.834961,3272.119141
3880.786133,3272.045898
3881.201172,3272.192383
3881.030273,3272.143555
3881.054688,3272.119141
3881.079102,3272.021484
3881.030273,3271.899414
3881.054688,3271.704102
3880.737305,3271.557617
3880.786133,3271.508789
3880.786133,3271.069336
3880.883789,3270.727539
3880.883789,3270.776367
3880.664063,3270.947266
3880.615234,3270.898438
3880.810547,3270.458984
3880.712891,3270.581055
3880.444336,3270.581055
3880.566406,3270.336914
3880.566406,3270.458984
3880.517578,3270.092773
3880.615234,3270.092773
3880.468750,3270.019531
3880.468750,3269.824219
3880.419922,3270.043945
3880.346680,3269.946289
3880.224609,3269.897461
3880.078125,3269.750977
3880.151367,3269.873047
3880.249023,3269.824219
3880.078125,3269.580078
3879.931641,3269.677734
3880.004883,3269.555664
3879.809570,3269.360352
3880.078125,3269.726563
3880.468750,3271.093750
3881.176758,3272.656250
3881.884766,3274.145508
3882.617188,3274.096680
3882.690430,3274.145508
3882.495117,3273.559570
3882.104492,3273.315430
3882.275391,3273.217773
3882.104492,3273.291016
3882.202148,3273.071289
3882.275391,3273.120117
3881.958008,3273.022461
3882.421875,3272.802734
3882.104492,3272.680664
3882.250977,3272.460938
3881.933594,3272.412109
3881.933594,3272.534180
3881.811523,3272.338867
3881.762695,3272.338867
3881.591797,3272.412109
3881.665039,3271.997070
3881.323242,3271.826172
3881.469727,3271.826172
3881.225586,3271.704102
3881.274414,3271.704102
3881.176758,3271.386719
3881.054688,3271.093750
3881.054688,3270.654297
3880.737305,3270.874023
3880.761719,3270.581055
3880.859375,3270.605469
3880.615234,3270.654297
3880.834961,3270.605469
3880.761719,3270.288086
3880.517578,3270.336914
3880.517578,3270.043945
3880.395508,3269.970703
3880.590820,3269.775391
3880.419922,3269.677734
3880.419922,3269.531250
3880.395508,3269.580078
3880.224609,3269.482422
3880.151367,3269.360352
3880.102539,3269.311523
3880.175781,3268.994141
3880.029297,3269.311523
3880.249023,3270.825195
3881.176758,3271.972656
3881.835938,3273.022461
3882.202148,3273.315430
3882.080078,3273.291016
3882.055664,3272.827148
3881.909180,3272.509766
3881.640625,3272.314453
3881.469727,3272.338867
3881.542969,3272.363281
3881.542969,3272.412109
3881.640625,3272.290039
3881.738281,3272.265625
3881.689453,3272.338867
3881.469727,3271.972656
3881.640625,3272.241211
3881.518555,3272.216797
3881.518555,3272.143555
3881.396484,3271.850586
3881.201172,3271.875000
3881.079102,3271.435547
3880.908203,3271.435547
3880.957031,3271.264648
3880.688477,3270.996094
3880.664063,3270.922852
3880.517578,3270.898438
3880.541992,3270.874023
3880.493164,3270.727539
3880.590820,3270.727539
3880.493164,3270.678711
3880.517578,3270.532227
3880.297852,3270.532227
3880.517578,3270.458984
3880.419922,3270.068359
3880.175781,3270.117188
3880.346680,3269.897461
3880.346680,3269.799805
3880.004883,3269.775391
3880.249023,3269.702148
3880.297852,3269.189453
3880.249023,3269.262695
3880.053711,3269.140625
3880.249023,3269.213867
3880.395508,3269.970703
3880.908203,3271.240234
3881.762695,3272.949219
3882.324219,3273.510742
3882.397461,3273.608398
3882.397461,3273.535156
3882.324219,3272.631836
3881.860352,3272.607422
3881.933594,3272.363281
3882.031250,3272.558594
3881.909180,3272.583008
3882.104492,3272.436523
3882.104492,3272.460938
3881.811523,3271.997070
3881.640625,3272.094727
3881.738281,3272.021484
3881.909180,3271.875000
3881.665039,3272.021484
3881.469727,3272.021484
3881.884766,3271.850586
3881.689453,3271.655273
3881.396484,3271.582031
3881.372070,3271.435547
3881.372070,3271.044922
3881.127930,3271.044922
3881.079102,3270.727539
3880.883789,3270.703125
3881.274414,3270.458984
3881.225586,3270.361328
3881.103516,3270.605469
3881.079102,3270.141602
3881.103516,3270.117188
3881.054688,3270.214844
3881.030273,3270.019531
3880.908203,3270.117188
3881.054688,3269.555664
3881.005859,3269.653320
3880.957031,3269.628906
3880.981445,3269.726563
3880.957031,3269.262695
3880.737305,3269.238281
3880.639648,3269.140625
3880.541992,3269.116211
3880.493164,3268.530273
3880.395508,3268.530273
3880.297852,3268.359375
3880.346680,3269.360352
3881.054688,3270.996094
3881.811523,3272.387695
3882.177734,3273.315430
3882.519531,3273.242188
3882.470703,3272.680664
3882.373047,3272.631836
3882.104492,3272.436523
3882.006836,3272.192383
3882.373047,3272.412109
3882.153320,3272.607422
3882.153320,3272.265625
3882.080078,3272.094727
3882.128906,3271.899414
3881.958008,3271.557617
3881.811523,3271.533203
3881.884766,3271.850586
3881.982422,3271.777344
3881.909180,3271.582031
3881.616211,3271.606445
3881.835938,3271.679688
3881.762695,3271.386719
3881.738281,3271.215820
3881.640625,3271.093750
3881.542969,3270.874023
3881.494141,3270.727539
3881.616211,3270.825195
3881.494141,3270.629883
3881.494141,3270.581055
3881.567383,3270.458984
3881.494141,3270.385742
3881.518555,3270.483398
3881.420898,3270.532227
3881.372070,3270.263672
3881.250000,3269.824219
3881.396484,3270.068359
3881.201172,3270.117188
3881.250000,3269.995117
3881.152344,3269.946289
3881.396484,3269.750977
3881.274414,3269.921875
3881.225586,3269.726563
3881.127930,3269.506836
3881.127930,3269.409180
3880.957031,3269.360352
3880.932617,3269.433594
3880.810547,3269.531250
3881.127930,3270.874023
3881.909180,3272.485352
3882.714844,3273.754883
3883.056641,3273.754883
3883.056641,3273.681641
3882.885742,3273.022461
3882.641602,3272.949219
3882.299805,3272.705078
3882.299805,3272.998047
3882.446289,3272.827148
3882.519531,3272.949219
3882.348633,3272.436523
3882.153320,3272.534180
3881.958008,3272.119141
3882.055664,3272.241211
3881.982422,3272.290039
3881.982422,3272.070313
3881.909180,3272.119141
3882.128906,3272.143555
3881.958008,3271.923828
3882.006836,3271.948242
3881.933594,3271.606445
3881.835938,3271.533203
3881.616211,3271.166992
3881.713867,3271.093750
3881.396484,3271.118164
3881.665039,3271.264648
3881.469727,3270.776367
3881.347656,3270.776367
3881.494141,3270.458984
3881.469727,3270.556641
3881.445313,3270.678711
3881.250000,3270.605469
3881.518555,3270.703125
3881.420898,3270.605469
3881.665039,3270.556641
3881.420898,3270.361328
3881.445313,3270.288086
3881.250000,3270.361328
3881.176758,3270.117188
3881.347656,3269.970703
3881.225586,3269.970703
3881.225586,3270.043945
3881.420898,3271.240234
3881.958008,3272.875977
3882.568359,3274.023438
3883.007813,3274.584961
3883.154297,3274.633789
3883.129883,3274.121094
3883.007813,3273.657227
3882.666016,3273.925781
3882.714844,3273.901367
3882.739258,3273.901367
3882.788086,3273.901367
3882.592773,3273.828125
3882.763672,3273.779297
3882.519531,3273.559570
3882.666016,3273.632813
3882.592773,3273.632813
3882.543945,3273.681641
3882.690430,3273.754883
3882.739258,3273.608398
3882.470703,3273.461914
3882.617188,3273.291016
3882.568359,3272.924805
3882.324219,3273.022461
3882.080078,3272.753906
3882.250977,3272.485352
3882.128906,3272.485352
3882.080078,3272.485352
3881.860352,3272.363281
3882.031250,3272.070313
3882.104492,3271.997070
3881.933594,3271.679688
3881.689453,3272.021484
3881.835938,3271.826172
3881.811523,3271.728516
3881.616211,3271.508789
3881.372070,3271.508789
3881.616211,3271.459961
3881.591797,3271.289063
3881.567383,3271.020508
3881.323242,3270.996094
3881.372070,3270.605469
3881.445313,3270.654297
3881.494141,3270.458984
3881.225586,3270.751953
3881.469727,3270.434570
3881.274414,3270.434570
3881.152344,3270.312500
3881.225586,3270.800781
3881.713867,3272.192383
3882.470703,3273.706055
3883.349609,3274.755859
3883.300781,3275.292969
3883.398438,3274.902344
3883.520508,3274.414063
3883.349609,3274.121094
3883.105469,3274.145508
3882.958984,3273.852539
3882.910156,3273.999023
3883.105469,3273.876953
3882.714844,3273.950195
3882.788086,3273.852539
3882.690430,3273.535156
3882.788086,3273.461914
3882.690430,3273.657227
3882.836914,3273.461914
3882.617188,3273.364258
3882.763672,3273.315430
3882.617188,3273.242188
3882.666016,3272.900391
3882.543945,3272.802734
3882.617188,3272.631836
3882.446289,3272.534180
3882.421875,3272.387695
3882.202148,3271.997070
3882.177734,3271.948242
3882.031250,3271.752930
3882.250977,3271.752930
3882.031250,3271.533203
3882.153320,3271.484375
3882.031250,3271.313477
3881.958008,3271.166992
3881.933594,3271.069336
3881.787109,3270.800781
3881.860352,3270.776367
3881.860352,3270.629883
3881.396484,3270.581055
3881.591797,3270.312500
3881.518555,3270.263672
3881.665039,3270.043945
3881.323242,3269.702148
3881.225586,3269.726563
3881.225586,3269.775391
3881.054688,3269.677734
3881.079102,3269.750977
3881.005859,3269.482422
3881.079102,3270.166016
3881.738281,3271.826172
3882.202148,3273.413086
3882.934570,3274.291992
3883.251953,3274.169922
3883.276367,3274.169922
3883.178711,3273.779297
3883.007813,3273.657227
3882.910156,3273.608398
3883.007813,3273.510742
3883.374023,3273.413086
3883.593750,3273.803711
3883.154297,3273.339844
3883.203125,3273.120117
3883.300781,3273.168945
3883.251953,3273.291016
3883.300781,3272.973633
3883.422852,3273.315430
3883.447266,3273.559570
3883.398438,3273.266602
3883.374023,3273.095703
3883.203125,3272.802734
3883.105469,3272.631836
3882.983398,3272.558594
3882.983398,3272.534180
3883.007813,3272.167969
3882.910156,3272.192383
3882.763672,3272.094727
3882.788086,3271.899414
3882.714844,3271.801758
3882.812500,3271.777344
3883.056641,3271.630859
3883.032227,3271.606445
3882.934570,3271.362305
3882.592773,3271.337891
3882.763672,3271.362305
3882.470703,3270.996094
3882.519531,3270.849609
3882.275391,3270.776367
3882.421875,3270.507813
3882.348633,3270.312500
3882.397461,3271.166992
3882.812500,3273.071289
3883.593750,3274.218750
3884.277344,3274.853516
3884.350586,3274.780273
3884.448242,3274.682617
3884.448242,3274.682617
3884.448242,3274.609375
3884.106445,3274.902344
3884.350586,3274.877930
3884.326172,3274.829102
3884.375000,3274.365234
3883.789063,3274.462891
3883.911133,3274.072266
3883.813477,3273.974609
3883.715820,3273.925781
3883.618164,3274.047852
3883.666992,3273.950195
3883.666992,3273.632813
3883.544922,3273.266602
3883.422852,3273.437500
3883.422852,3273.144531
3883.276367,3272.607422
3883.203125,3272.460938
3883.178711,3272.412109
3882.763672,3272.143555
3882.690430,3271.728516
3882.714844,3271.777344
3882.592773,3271.630859
3882.617188,3271.435547
3882.324219,3271.411133
3882.495117,3271.313477
3881.958008,3270.898438
3882.226563,3270.898438
3881.958008,3270.678711
3881.909180,3270.605469
3881.738281,3270.507813
3881.738281,3270.214844
3881.787109,3270.068359
3881.689453,3270.166016
3881.640625,3269.799805
3881.494141,3269.628906
3881.396484,3269.702148
3881.372070,3269.677734
3881.420898,3269.873047
3881.567383,3271.020508
3882.348633,3272.827148
3883.081055,3274.145508
3883.325195,3274.560547
3883.593750,3274.291992
3883.520508,3273.950195
3883.398438,3273.901367
3883.227539,3273.876953
3883.325195,3273.950195
3883.129883,3274.145508
3883.349609,3274.560547
3883.447266,3274.169922
3883.325195,3274.121094
3883.203125,3274.072266
3883.105469,3273.852539
3883.227539,3274.121094
3883.056641,3273.999023
3883.203125,3273.974609
3883.129883,3274.047852
3883.032227,3273.730469
3883.105469,3273.388672
3882.934570,3273.120117
3883.007813,3273.730469
3882.934570,3273.388672
3882.690430,3272.924805
3882.641602,3272.607422
3882.812500,3272.338867
3882.788086,3272.485352
3882.714844,3271.997070
3882.714844,3272.021484
3882.568359,3271.899414
3882.446289,3271.777344
3882.592773,3271.459961
3882.373047,3271.435547
3882.739258,3271.508789
3882.495117,3271.166992
3882.568359,3271.142578
3882.641602,3271.020508
3882.763672,3271.142578
3882.666016,3270.727539
3882.739258,3270.825195
3882.641602,3270.800781
3882.470703,3270.507813
3882.641602,3270.556641
3882.592773,3270.507813
3882.373047,3270.239258
3882.495117,3270.410156
3882.324219,3270.239258
3882.299805,3270.141602
3882.275391,3270.117188
3882.446289,3271.411133
3882.861328,3273.022461
3883.813477,3274.487305
3884.326172,3275.122070
3884.594727,3275.219727
3884.204102,3274.951172
3884.106445,3274.780273
3883.984375,3274.755859
3883.935547,3275.195313
3884.179688,3275.537109
3884.179688,3275.903320
3884.375000,3275.634766
3884.350586,3275.292969
3884.375000,3275.122070
3883.984375,3275.146484
3884.008789,3275.048828
3884.057617,3274.902344
3884.130859,3275.000000
3884.228516,3274.877930
3884.130859,3274.609375
3884.106445,3274.584961
3883.862305,3274.414063
3883.935547,3274.047852
3883.593750,3273.852539
3883.520508,3273.754883
3883.618164,3273.437500
3883.471680,3273.413086
3883.496094,3273.120117
3883.618164,3272.875977
3883.496094,3272.973633
3883.569336,3272.949219
3883.447266,3272.753906
3883.251953,3272.509766
3883.398438,3272.363281
3883.203125,3272.412109
3883.471680,3272.436523
3883.422852,3272.070313
3883.496094,3272.094727
3883.520508,3272.021484
3883.374023,3271.997070
3883.276367,3271.923828
3883.374023,3271.826172
3883.325195,3271.899414
3883.300781,3271.533203
3883.203125,3271.704102
3883.374023,3271.655273
3883.276367,3271.655273
3883.227539,3271.606445
3883.300781,3272.070313
3883.447266,3273.217773
3884.277344,3275.537109
3885.107422,3276.757813
3885.449219,3277.124023
3885.595703,3277.001953
3885.546875,3276.904297
3885.156250,3276.635742
3885.229492,3276.782227
3885.205078,3277.050781
3885.522461,3277.221680
3885.400391,3277.148438
3885.668945,3276.635742
3885.375977,3276.489258
3885.424805,3276.513672
3885.034180,3276.538086
3885.327148,3276.220703
3885.327148,3276.342773
3885.351563,3276.123047
3885.229492,3276.196289
3885.278320,3275.854492
3885.107422,3275.634766
3884.863281,3275.463867
3884.936523,3275.244141
3884.960938,3275.097656
3884.716797,3274.853516
3884.887695,3275.073242
3884.960938,3275.170898
3884.887695,3275.024414
3885.009766,3275.024414
3884.643555,3274.707031
3884.594727,3274.877930
3884.399414,3274.462891
3884.619141,3274.291992
3884.448242,3274.462891
3884.252930,3273.999023
3884.326172,3273.925781
3884.204102,3273.974609
3884.033203,3273.925781
3884.082031,3273.852539
3883.984375,3273.754883
3883.666992,3273.608398
3883.642578,3273.632813
3883.569336,3273.315430
3883.496094,3273.803711
3884.106445,3275.341797
3884.985352,3277.050781
3885.791016,3278.491211
3886.010742,3278.710938
3885.986328,3278.515625
3885.717773,3278.173828
3885.815430,3278.027344
3885.742188,3278.344727
3885.986328,3278.662109
3886.206055,3278.906250
3886.230469,3278.808594
3886.279297,3278.759766
3886.157227,3278.466797
3885.791016,3278.466797
3886.059570,3278.442383
3886.059570,3278.344727
3886.157227,3278.369141
3886.035156,3278.222656
3885.864258,3277.734375
3885.815430,3277.587891
3885.375977,3277.343750
3885.668945,3277.221680
3885.375977,3276.977539
3885.229492,3276.806641
3885.253906,3276.684570
3885.229492,3276.660156
3885.058594,3276.342773
3885.131836,3276.147461
3884.863281,3275.756836
3884.692383,3275.756836
3884.667969,3275.781250
3884.716797,3275.512695
3884.570313,3275.415039
3884.472656,3275.463867
3884.545898,3275.195313
3884.204102,3275.000000
3884.179688,3275.170898
3884.228516,3275.024414
3883.886719,3274.658203
3883.911133,3274.633789
3883.911133,3274.780273
3883.789063,3274.707031
3883.837891,3274.511719
3883.862305,3274.389648
3883.935547,3274.243164
3883.740234,3274.023438
3883.862305,3273.974609
3884.057617,3274.682617
3884.619141,3276.684570
3885.180664,3278.320313
3885.913086,3278.857422
3886.108398,3278.857422
3886.157227,3278.491211
3885.644531,3278.369141
3885.717773,3277.954102
3886.059570,3278.344727
3886.083984,3278.710938
3886.328125,3279.174805
3886.450195,3278.613281
3886.132813,3278.369141
3885.791016,3278.149414
3885.595703,3277.880859
3885.571289,3277.832031
3885.449219,3277.661133
3885.766602,3277.612305
3885.742188,3277.661133
3885.473633,3277.368164
3885.668945,3277.270508
3885.375977,3277.124023
3885.449219,3277.001953
3885.400391,3276.611328
3885.253906,3276.538086
3885.107422,3276.342773
3885.205078,3276.196289
3885.083008,3276.269531
3885.107422,3276.000977
3884.887695,3276.123047
3884.985352,3275.976563
3884.936523,3275.805664
3884.912109,3275.634766
3884.838867,3275.634766
3884.936523,3275.756836
3885.131836,3275.463867
3884.985352,3275.268555
3884.960938,3275.488281
3884.912109,3275.219727
3885.131836,3275.146484
3884.960938,3275.268555
3885.327148,3275.195313
3884.985352,3274.975586
3884.985352,3274.877930
3884.887695,3274.829102
3884.716797,3274.584961
3884.570313,3274.023438
3884.521484,3274.316406
3884.448242,3274.194336
3884.594727,3274.975586
3885.156250,3276.464844
3886.010742,3277.929688
3886.425781,3278.540039
3886.425781,3278.735352
3886.303711,3278.466797
3886.328125,3278.149414
3885.961914,3278.002930
3885.888672,3277.978516
3886.010742,3278.149414
3885.864258,3278.173828
3885.986328,3277.905273
3885.937500,3277.587891
3885.717773,3277.709961
3885.424805,3277.294922
3885.229492,3277.368164
3885.351563,3277.368164
3885.400391,3277.441406
3885.327148,3277.319336
3885.253906,3277.270508
3885.351563,3277.148438
3885.449219,3277.099609
3885.571289,3276.684570
3885.302734,3276.977539
3885.595703,3276.904297
3885.473633,3276.342773
3885.571289,3276.367188
3885.351563,3276.416016
3885.571289,3276.147461
3885.546875,3276.123047
3885.766602,3276.000977
3885.644531,3276.147461
3885.498047,3276.074219
3885.400391,3275.756836
3885.400391,3275.927734
3885.351563,3275.805664
3885.229492,3275.732422
3885.180664,3275.537109
3885.253906,3275.292969
3885.107422,3275.195313
3885.107422,3275.537109
3885.351563,3276.538086
3885.986328,3277.856445
3886.206055,3278.808594
3886.474609,3279.296875
3886.621094,3279.077148
3886.743164,3278.808594
3886.376953,3278.466797
3886.401367,3278.466797
3886.303711,3278.735352
3886.352539,3278.540039
3886.425781,3278.344727
3886.206055,3277.734375
3886.059570,3277.587891
3886.181641,3277.587891
3886.206055,3277.392578
3885.986328,3277.441406
3886.132813,3277.441406
3885.986328,3277.563477
3885.961914,3277.465820
3885.913086,3277.172852
3886.181641,3277.294922
3886.010742,3277.343750
3885.888672,3277.124023
3885.961914,3276.635742
3885.839844,3276.464844
3885.839844,3276.489258
3885.546875,3276.171875
3885.644531,3276.293945
3885.620117,3276.074219
3885.693359,3276.074219
3885.693359,3276.098633
3885.620117,3276.074219
3885.766602,3276.025391
3885.668945,3275.903320
3885.693359,3275.830078
3885.693359,3275.781250
3885.742188,3275.561523
3885.400391,3275.415039
3885.424805,3275.805664
3885.815430,3277.172852
3886.425781,3278.369141
3886.987305,3279.589844
3887.255859,3279.785156
3887.500000,3279.785156
3887.353516,3279.467773
3887.158203,3279.272461
3887.255859,3278.955078
3887.011719,3278.979492
3887.524414,3279.223633
3887.280273,3279.077148
3887.231445,3278.735352
3886.791992,3278.344727
3886.718750,3278.100586
3886.621094,3278.198242
3886.621094,3278.198242
3886.621094,3278.173828
3886.523438,3278.222656
3886.645508,3278.076172
3886.669922,3277.905273
3886.596680,3277.783203
3886.450195,3277.758789
3886.376953,3277.661133
3886.376953,3277.514648
3886.328125,3277.343750
3885.937500,3277.075195
3885.937500,3276.904297
3885.742188,3276.879883
3885.839844,3276.977539
3886.035156,3276.513672
3885.913086,3276.440430
3885.693359,3276.293945
3885.668945,3276.196289
3885.766602,3276.196289
3885.668945,3276.000977
3885.571289,3275.927734
3885.620117,3275.634766
3885.546875,3275.439453
3885.400391,3275.317383
3885.498047,3275.219727
3885.375977,3275.366211
3885.473633,3275.366211
3885.131836,3275.195313
3885.546875,3275.878906
3886.157227,3277.612305
3886.938477,3279.321289
3887.426758,3279.956055
3887.915039,3280.273438
3887.451172,3279.931641
3887.573242,3279.687500
3887.475586,3279.370117
3887.622070,3279.614258
3887.939453,3280.004883
3887.792969,3279.956055
3887.866211,3279.589844
3887.622070,3279.394531
3887.377930,3278.857422
3887.255859,3278.686523
3887.182617,3278.564453
3887.353516,3278.344727
3887.329102,3278.417969
3887.109375,3278.149414
3887.060547,3277.758789
3886.865234,3277.807617
3887.011719,3277.490234
3886.938477,3277.124023
3886.767578,3276.904297
3886.718750,3276.538086
3886.621094,3276.342773
3886.303711,3276.196289
3886.108398,3275.805664
3886.181641,3275.634766
3885.986328,3275.634766
3886.181641,3275.439453
3886.157227,3275.195313
3885.864258,3275.146484
3885.791016,3275.097656
3885.888672,3274.853516
3885.668945,3274.804688
3885.766602,3274.584961
3885.620117,3274.511719
3885.571289,3274.316406
3885.375977,3274.365234
3885.302734,3274.169922
3885.278320,3274.047852
3885.156250,3274.096680
3885.278320,3274.023438
3885.375977,3273.828125
3885.400391,3273.681641
3885.229492,3273.706055
3884.887695,3273.510742
3885.131836,3273.461914
3884.985352,3273.876953
3885.278320,3275.122070
3886.059570,3276.953125
3886.889648,3278.320313
3887.426758,3278.735352
3887.622070,3278.369141
3887.084961,3277.929688
3886.816406,3277.612305
3886.816406,3277.368164
3886.450195,3277.465820
3886.621094,3277.807617
3886.499023,3277.661133
3886.450195,3277.441406
3886.279297,3276.977539
3886.352539,3276.782227
3886.035156,3276.708984
3885.839844,3276.464844
3885.839844,3276.440430
3885.839844,3276.416016
3885.742188,3276.269531
3885.937500,3276.196289
3885.668945,3275.878906
3885.815430,3275.830078
3885.693359,3275.830078
3885.864258,3275.634766
3885.595703,3275.732422
3885.815430,3275.488281
3885.668945,3275.292969
3885.595703,3275.073242
3885.473633,3275.073242
3885.644531,3274.707031
3885.473633,3274.536133
3885.351563,3274.633789
3885.498047,3274.438477
3885.546875,3274.511719
3885.522461,3274.462891
3885.498047,3274.365234
3885.473633,3274.145508
3885.424805,3274.121094
3885.253906,3274.096680
3885.375977,3273.901367
3885.400391,3273.730469
3885.375977,3273.730469
3885.400391,3273.583984
3885.351563,3273.510742
3885.351563,3273.559570
3885.571289,3273.193359
3885.400391,3273.950195
3885.815430,3275.317383
3886.645508,3276.879883
3887.329102,3277.758789
3887.475586,3277.636719
3887.402344,3277.465820
3887.402344,3276.708984
3887.109375,3276.562500
3886.938477,3276.611328
3887.011719,3276.489258
3886.865234,3276.489258
3887.109375,3276.538086
3887.011719,3276.147461
3886.914063,3276.074219
3886.840820,3275.976563
3886.840820,3275.781250
3886.743164,3275.976563
3886.645508,3275.854492
3886.767578,3275.952148
3886.718750,3275.854492
3886.743164,3275.976563
3886.791992,3275.585938
3886.669922,3275.390625
3886.743164,3275.463867
3886.499023,3275.195313
3886.376953,3275.195313
3886.376953,3275.244141
3886.596680,3275.195313
3886.303711,3275.024414
3886.279297,3274.926758
3886.376953,3274.560547
3886.059570,3274.731445
3886.083984,3274.511719
3886.376953,3274.829102
3886.035156,3274.731445
3886.108398,3274.462891
3886.157227,3274.462891
3885.986328,3274.658203
3886.010742,3274.291992
3885.913086,3274.438477
3885.791016,3274.267578
3885.864258,3274.487305
3886.010742,3274.536133
3885.888672,3273.974609
3886.035156,3274.877930
3886.254883,3276.611328
3887.255859,3277.905273
3887.792969,3278.686523
3888.012695,3278.759766
3888.183594,3278.393555
3887.890625,3278.027344
3887.792969,3277.490234
3887.670898,3277.636719
3887.280273,3277.441406
3887.426758,3277.465820
3887.451172,3277.343750
3887.573242,3277.075195
3887.500000,3277.490234
3887.792969,3277.636719
3887.768555,3277.709961
3888.159180,3277.880859
3887.915039,3277.636719
3888.037109,3277.709961
3887.939453,3277.343750
3887.988281,3277.221680
3887.792969,3277.099609
3887.646484,3277.026367
3887.548828,3276.782227
3887.500000,3276.464844
3887.353516,3276.269531
3887.158203,3276.025391
3886.962891,3275.976563
3887.158203,3275.683594
3886.889648,3275.537109
3886.743164,3275.317383
3886.767578,3275.244141
3886.914063,3275.122070
3886.669922,3274.975586
3886.572266,3275.000000
3886.474609,3274.951172
3886.401367,3274.731445
3886.230469,3274.707031
3886.376953,3274.633789
3886.108398,3274.291992
3886.083984,3274.047852
3885.888672,3273.852539
3885.961914,3273.779297
3886.035156,3273.583984
3885.913086,3273.706055
3885.815430,3273.046875
3885.864258,3272.998047
3885.791016,3272.949219
3885.620117,3272.875977
3885.620117,3272.827148
3885.620117,3273.022461
3885.571289,3273.413086
3886.181641,3274.853516
3887.011719,3276.220703
3887.622070,3277.148438
3887.890625,3277.197266
3887.646484,3277.099609
3887.548828,3276.342773
3887.280273,3275.952148
3887.060547,3275.854492
3887.158203,3275.708008
3887.231445,3275.903320
3887.182617,3275.683594
3887.084961,3275.341797
3886.914063,3275.512695
3886.816406,3275.317383
3886.572266,3275.097656
3886.499023,3274.877930
3886.596680,3274.755859
3886.376953,3274.731445
3886.132813,3274.804688
3886.376953,3274.462891
3886.254883,3274.389648
3886.279297,3274.047852
3886.279297,3274.145508
3885.937500,3273.828125
3885.839844,3273.583984
3886.035156,3273.559570
3885.961914,3273.583984
3885.839844,3273.315430
3885.693359,3273.266602
3885.693359,3273.120117
3885.522461,3272.778320
3885.424805,3272.753906
3885.522461,3272.607422
3885.449219,3272.900391
3885.498047,3272.680664
3885.302734,3272.534180
3885.302734,3272.656250
3885.253906,3272.387695
3885.375977,3272.436523
3885.351563,3272.192383
3885.131836,3271.972656
3885.375977,3271.850586
3885.083008,3271.679688
3885.034180,3271.826172
3884.985352,3271.655273
3884.985352,3271.557617
3885.058594,3271.386719
3884.960938,3271.557617
3884.765625,3271.289063
3884.667969,3270.971680
3884.667969,3271.411133
3885.083008,3273.022461
3886.010742,3274.145508
3886.767578,3275.244141
3886.914063,3275.390625
3886.865234,3275.341797
3886.499023,3274.951172
3886.523438,3274.633789
3886.474609,3274.438477
3886.450195,3274.389648
3886.547852,3274.462891
3886.621094,3274.243164
3886.596680,3274.414063
3886.596680,3274.169922
3886.376953,3273.950195
3886.352539,3274.023438
3886.206055,3273.583984
3886.303711,3274.023438
3886.035156,3273.608398
3885.986328,3273.657227
3885.913086,3273.413086
3885.888672,3273.217773
3885.815430,3273.291016
3885.742188,3273.022461
3885.888672,3272.729492
3885.351563,3272.436523
3885.424805,3272.290039
3885.302734,3272.509766
3885.229492,3272.705078
3885.400391,3272.412109
3885.375977,3272.094727
3885.156250,3272.021484
3884.912109,3272.241211
3884.936523,3271.972656
3885.131836,3271.728516
3884.716797,3271.337891
3884.594727,3271.362305
3884.692383,3271.484375
3884.741211,3271.289063
3884.838867,3271.166992
3884.643555,3271.093750
3884.570313,3270.947266
3884.667969,3270.947266
3884.741211,3271.166992
3884.912109,3270.825195
3884.814453,3270.898438
3884.838867,3271.044922
3884.960938,3271.728516
3885.717773,3273.217773
3886.352539,3274.389648
3886.767578,3275.122070
3887.207031,3275.048828
3887.060547,3275.122070
3886.865234,3274.877930
3887.011719,3274.414063
3886.840820,3274.218750
3886.865234,3273.876953
3886.840820,3273.999023
3886.718750,3274.072266
3886.816406,3273.950195
3886.840820,3274.047852
3886.865234,3273.681641
3886.718750,3274.072266
3886.840820,3273.974609
3886.889648,3273.925781
3887.011719,3273.657227
3886.718750,3273.754883
3886.767578,3273.559570
3886.914063,3273.535156
3886.645508,3273.339844
3886.547852,3273.217773
3886.474609,3273.168945
3886.303711,3272.778320
3886.279297,3272.509766
3886.254883,3272.631836
3886.157227,3272.290039
3886.010742,3272.167969
3886.010742,3272.094727
3885.791016,3272.021484
3885.888672,3271.948242
3885.693359,3272.021484
3885.839844,3271.972656
3885.864258,3271.655273
3885.571289,3271.606445
3885.546875,3271.679688
3885.546875,3271.582031
3885.058594,3271.679688
3885.009766,3271.313477
3885.034180,3271.362305
3884.741211,3271.118164
3885.058594,3271.118164
3884.985352,3270.971680
3885.229492,3270.678711
3885.156250,3270.581055
3885.156250,3270.605469
3884.960938,3270.703125
3884.936523,3270.361328
3884.887695,3270.849609
3885.278320,3272.021484
3886.108398,3273.510742
3886.938477,3274.584961
3886.889648,3274.877930
3886.865234,3274.560547
3886.987305,3274.267578
3886.767578,3273.901367
3886.621094,3273.681641
3886.718750,3273.535156
3886.499023,3273.559570
3886.572266,3273.486328
3886.523438,3273.144531
3886.499023,3272.973633
3886.254883,3272.875977
3886.083984,3272.875977
3886.059570,3272.851563
3886.230469,3273.071289
3886.352539,3272.827148
3886.230469,3272.924805
3886.279297,3272.949219
3886.230469,3272.705078
3886.157227,3272.363281
3886.181641,3272.216797
3886.059570,3272.021484
3885.815430,3271.923828
3885.937500,3271.655273
3885.668945,3271.679688
3885.766602,3271.533203
3885.766602,3271.630859
3885.742188,3271.411133
3885.864258,3271.484375
3885.766602,3271.508789
3885.766602,3271.362305
3885.620117,3271.435547
3885.839844,3271.044922
3885.546875,3270.922852
3885.498047,3270.874023
3885.498047,3270.996094
3885.449219,3270.947266
3885.644531,3270.825195
3885.449219,3270.605469
3885.205078,3270.532227
3885.351563,3270.703125
3885.375977,3270.678711
3885.620117,3270.898438
3885.351563,3270.385742
3885.278320,3270.483398
3885.205078,3270.629883
3885.107422,3270.434570
3885.253906,3270.458984
3885.205078,3270.507813
3885.083008,3271.899414
3885.937500,3273.339844
3886.718750,3274.511719
3887.133789,3275.146484
3887.133789,3274.560547
3887.280273,3274.633789
3886.987305,3274.487305
3886.816406,3274.218750
3886.547852,3273.754883
3886.718750,3273.754883
3886.499023,3273.754883
3886.450195,3273.779297
3886.376953,3273.486328
3886.352539,3273.315430
3886.328125,3273.437500
3886.499023,3273.657227
3886.572266,3273.730469
3886.645508,3273.608398
3886.450195,3273.852539
3886.474609,3273.632813
3886.621094,3273.510742
3886.474609,3273.388672
3886.376953,3273.095703
3886.425781,3273.120117
3886.254883,3272.949219
3886.132813,3272.875977
3886.279297,3272.802734
3886.010742,3272.827148
3885.937500,3272.656250
3886.010742,3272.680664
3885.864258,3272.705078
3885.888672,3272.436523
3885.864258,3272.509766
3885.791016,3272.460938
3885.668945,3272.045898
3885.546875,3272.265625
3885.546875,3272.143555
3885.351563,3272.045898
3885.327148,3271.875000
3885.400391,3271.704102
3885.375977,3271.899414
3885.253906,3271.728516
3885.156250,3271.630859
3885.229492,3271.484375
3885.229492,3271.240234
3884.863281,3271.215820
3885.302734,3272.143555
3885.937500,3273.535156
3886.523438,3274.536133
3886.889648,3275.146484
3887.036133,3275.146484
3887.011719,3275.122070
3886.889648,3274.755859
3886.621094,3274.658203
3886.572266,3274.169922
3886.645508,3274.121094
3886.450195,3274.218750
3886.450195,3274.047852
3886.279297,3273.730469
3886.303711,3273.925781
3886.303711,3273.803711
3886.181641,3274.023438
3886.279297,3273.828125
3886.425781,3273.925781
3886.352539,3273.779297
3886.206055,3273.828125
3886.279297,3273.535156
3886.303711,3273.559570
3886.303711,3273.193359
3886.157227,3273.486328
3886.352539,3273.266602
3886.157227,3273.046875
3885.986328,3272.998047
3885.937500,3272.949219
3886.181641,3272.827148
3886.157227,3272.949219
3886.181641,3272.656250
3886.132813,3272.924805
3885.937500,3272.509766
3886.132813,3272.363281
3885.839844,3272.119141
3885.742188,3271.704102
3885.815430,3271.801758
3885.522461,3271.850586
3885.375977,3271.630859
3885.253906,3271.752930
3885.522461,3271.655273
3885.400391,3271.386719
3885.571289,3271.508789
3885.424805,3271.484375
3885.351563,3271.313477
3885.327148,3271.435547
3885.498047,3271.240234
3885.400391,3271.386719
3885.546875,3272.021484
3886.108398,3273.535156
3886.547852,3274.560547
3887.060547,3275.366211
3887.402344,3275.732422
3887.207031,3275.219727
3886.938477,3274.682617
3886.718750,3274.511719
3886.718750,3274.414063
3886.669922,3274.096680
3886.352539,3274.218750
3886.621094,3274.340820
3886.596680,3274.169922
3886.230469,3274.243164
3886.157227,3274.096680
3886.132813,3273.999023
3885.937500,3273.925781
3886.230469,3274.047852
3886.376953,3274.169922
3886.230469,3273.779297
3886.328125,3273.999023
3886.279297,3273.974609
3886.083984,3273.681641
3886.157227,3273.510742
3885.864258,3273.364258
3885.693359,3273.291016
3885.937500,3273.217773
3885.693359,3272.949219
3885.668945,3272.705078
3885.791016,3272.778320
3885.766602,3272.778320
3885.595703,3272.924805
3885.693359,3272.534180
3885.522461,3272.802734
3885.205078,3272.192383
3885.180664,3272.045898
3885.424805,3272.436523
3885.375977,3272.192383
3885.424805,3272.119141
3885.522461,3272.119141
3885.375977,3271.997070
3885.180664,3271.826172
3885.424805,3272.021484
3885.229492,3271.557617
3885.400391,3271.508789
3885.473633,3271.533203
3885.351563,3271.459961
3885.205078,3271.484375
3885.571289,3271.459961
3885.571289,3271.582031
3885.595703,3271.655273
3885.693359,3271.533203
3885.815430,3271.435547
3885.668945,3271.533203
3885.815430,3272.363281
3886.352539,3273.999023
3887.084961,3275.195313
3887.646484,3275.708008
3887.963867,3275.708008
3887.841797,3275.415039
3887.792969,3275.048828
3887.817383,3274.951172
3887.744141,3274.975586
3887.548828,3275.097656
3887.670898,3275.244141
3887.768555,3275.024414
3887.744141,3275.122070
3887.866211,3275.097656
3887.719727,3274.804688
3887.597656,3275.000000
3887.695313,3274.829102
3887.841797,3274.926758
3887.841797,3274.926758
3887.841797,3274.780273
3887.695313,3274.853516
3887.670898,3274.536133
3887.573242,3274.365234
3887.573242,3274.462891
3887.670898,3274.023438
3887.426758,3274.218750
3887.500000,3274.023438
3887.500000,3273.901367
3887.231445,3273.828125
3887.573242,3273.828125
3887.280273,3273.950195
3887.280273,3273.583984
3887.255859,3273.559570
3887.158203,3273.535156
3887.133789,3273.437500
3887.060547,3273.461914
3887.084961,3273.193359
3886.865234,3273.242188
3886.840820,3273.217773
3886.889648,3273.046875
3886.694336,3272.753906
3886.694336,3272.949219
3886.596680,3272.729492
3886.645508,3272.436523
3886.254883,3272.583008
3886.230469,3272.338867
3886.230469,3272.485352
3886.401367,3272.705078
3886.254883,3272.460938
3886.376953,3272.387695
3885.913086,3272.460938
3886.157227,3273.803711
3886.669922,3275.024414
3887.451172,3276.147461
3887.597656,3276.489258
3887.768555,3276.269531
3887.695313,3276.489258
3887.451172,3275.927734
3887.231445,3275.708008
3887.231445,3275.610352
3887.158203,3275.805664
3887.304688,3275.830078
3887.109375,3275.683594
3887.475586,3275.317383
3887.329102,3275.219727
3887.426758,3275.390625
3887.280273,3275.439453
3887.426758,3275.268555
3887.231445,3275.268555
3887.426758,3275.439453
3887.353516,3275.292969
3887.817383,3275.292969
3887.500000,3274.877930
3887.768555,3275.024414
3887.426758,3274.731445
3887.719727,3274.658203
3887.670898,3274.560547
3887.548828,3274.560547
3887.451172,3274.462891
3887.426758,3274.340820
3887.329102,3274.414063
3887.744141,3274.047852
3887.158203,3274.218750
3887.280273,3273.657227
3887.475586,3274.169922
3887.353516,3273.925781
3887.329102,3273.681641
3887.255859,3273.632813
3887.426758,3273.657227
3887.011719,3273.193359
3887.011719,3273.266602
3887.207031,3273.144531
3886.987305,3273.339844
3886.889648,3273.095703
3886.938477,3273.046875
3887.011719,3272.851563
3886.767578,3272.729492
3886.914063,3272.875977
3887.011719,3272.802734
3886.669922,3272.631836
3886.889648,3272.802734
3887.011719,3272.485352
3886.669922,3272.436523
3887.011719,3273.291016
3887.597656,3274.877930
3888.208008,3276.000977
3888.842773,3276.782227
3888.964844,3276.953125
3888.964844,3276.879883
3888.818359,3276.440430
3888.720703,3276.513672
3888.647461,3276.293945
3888.647461,3276.245117
3888.769531,3276.416016
3888.647461,3276.416016
3888.598633,3276.391602
3888.598633,3276.000977
3888.452148,3275.927734
3888.403320,3276.318359
3888.525391,3276.049805
3888.549805,3276.342773
3888.549805,3276.171875
3888.525391,3276.269531
3888.452148,3275.927734
3888.330078,3276.000977
3888.256836,3275.903320
3888.159180,3275.610352
3887.963867,3275.512695
3888.256836,3275.317383
3888.012695,3275.146484
3888.085938,3275.146484
3887.988281,3275.073242
3887.817383,3275.000000
3887.744141,3274.902344
3887.841797,3274.877930
3887.670898,3274.536133
3887.719727,3274.511719
3887.646484,3274.658203
3887.402344,3274.316406
3887.670898,3274.804688
3887.475586,3274.365234
3887.426758,3274.755859
3887.500000,3274.707031
3887.158203,3274.511719
3887.475586,3274.243164
3886.962891,3274.243164
3887.158203,3274.365234
3887.158203,3274.462891
3887.109375,3274.243164
3887.158203,3274.218750
3886.987305,3274.291992
3886.987305,3273.974609
3887.084961,3274.121094
3887.011719,3274.023438
3887.109375,3273.876953
3886.987305,3273.828125
3887.060547,3273.681641
3886.865234,3273.828125
3887.060547,3274.438477
3887.597656,3275.830078
3888.354492,3277.368164
3888.476563,3278.393555
3889.135742,3278.442383
3889.111328,3278.271484
3888.891602,3277.978516
3888.769531,3277.490234
3888.671875,3277.465820
3888.671875,3277.441406
3888.818359,3277.612305
3888.476563,3277.783203
3888.745117,3277.490234
3888.647461,3277.465820
3888.574219,3277.050781
3888.476563,3277.270508
3888.330078,3277.416992
3888.549805,3277.246094
3888.525391,3277.270508
3888.525391,3277.416992
3888.549805,3277.343750
3888.671875,3277.001953
3888.378906,3276.879883
3888.549805,3276.611328
3888.623047,3276.464844
3888.525391,3276.464844
3888.696289,3275.756836
3888.378906,3276.123047
3888.256836,3275.830078
3888.500977,3275.708008
3888.208008,3275.708008
3888.256836,3275.268555
3888.281250,3275.390625
3888.134766,3275.268555
3888.281250,3275.195313
3888.110352,3275.292969
3888.256836,3275.073242
3887.915039,3274.829102
3888.330078,3274.829102
3888.183594,3274.853516
3888.110352,3274.853516
3887.988281,3274.829102
3888.159180,3274.682617
3887.963867,3274.780273
3887.890625,3274.584961
3887.866211,3274.633789
3887.963867,3274.267578
3887.719727,3274.194336
3887.817383,3274.096680
3887.866211,3274.511719
3888.061523,3275.830078
3888.574219,3277.246094
3889.477539,3278.027344
3889.819336,3278.540039
3889.941406,3278.295898
3889.526367,3278.100586
3889.477539,3277.612305
3889.379883,3277.758789
3889.331055,3277.612305
3889.062500,3277.954102
3889.355469,3277.783203
3889.111328,3277.783203
3889.135742,3277.294922
3889.013672,3277.343750
3888.940430,3277.514648
3888.720703,3277.270508
3888.891602,3277.246094
3888.647461,3277.392578
3888.745117,3277.563477
3888.769531,3277.124023
3888.598633,3277.001953
3888.818359,3277.026367
3888.427734,3276.757813
3888.623047,3276.586914
3888.354492,3276.562500
3888.476563,3276.513672
3888.500977,3276.269531
3888.354492,3276.318359
3888.452148,3276.293945
3888.500977,3276.098633
3888.427734,3276.123047
3888.378906,3276.000977
3888.208008,3276.000977
3888.159180,3276.000977
3888.208008,3275.878906
3888.330078,3276.049805
3888.281250,3275.952148
3888.183594,3275.732422
3888.305664,3275.585938
3888.232422,3275.415039
3888.281250,3275.390625
3888.208008,3275.024414
3888.061523,3275.195313
3888.305664,3275.170898
3888.208008,3275.195313
3888.232422,3275.390625
3888.134766,3274.951172
3888.037109,3274.902344
3887.841797,3274.902344
3888.134766,3274.658203
3888.134766,3274.780273
3888.110352,3274.560547
3888.012695,3274.926758
3888.037109,3275.732422
3888.867188,3277.221680
3889.648438,3278.466797
3890.039063,3279.077148
3890.063477,3279.077148
3890.185547,3278.930664
3890.014648,3278.393555
3889.819336,3278.222656
3889.941406,3278.173828
3889.794922,3278.222656
3889.648438,3278.613281
3889.843750,3278.320313
3890.014648,3278.149414
3889.599609,3278.125000
3889.624023,3277.832031
3889.428711,3277.880859
3889.404297,3277.563477
3889.306641,3277.612305
3889.355469,3277.319336
3889.331055,3277.319336
3889.428711,3277.221680
3889.355469,3277.172852
3889.306641,3277.026367
3889.233398,3276.733398
3889.257813,3276.708984
3889.013672,3276.440430
3889.184570,3276.660156
3889.111328,3276.196289
3888.940430,3275.976563
3889.379883,3276.025391
3888.891602,3275.976563
3889.038086,3275.854492
3889.013672,3275.634766
3889.013672,3275.634766
3889.257813,3275.561523
3889.160156,3275.659180
3889.160156,3275.585938
3889.160156,3275.219727
3888.818359,3275.146484
3888.769531,3275.073242
3888.891602,3275.073242
3888.696289,3275.024414
3888.598633,3274.853516
3888.574219,3274.804688
3888.964844,3274.633789
3888.330078,3274.609375
3888.525391,3274.584961
3888.574219,3274.536133
3888.574219,3274.218750
3888.452148,3274.389648
3888.403320,3274.218750
3888.427734,3274.487305
3888.305664,3274.365234
3888.305664,3274.218750
3888.256836,3274.023438
3888.208008,3274.096680
3888.598633,3274.780273
3888.842773,3276.513672
3889.721680,3277.929688
3890.429688,3278.515625
3890.478516,3278.515625
3890.307617,3278.491211
3890.161133,3278.125000
3890.112305,3277.685547
3890.014648,3277.978516
3889.941406,3277.832031
3889.892578,3278.051758
3890.087891,3277.832031
3890.161133,3277.856445
3889.916992,3277.807617
3889.794922,3277.416992
3889.794922,3277.734375
3890.014648,3277.929688
3889.770508,3277.929688
3890.136719,3277.734375
3890.258789,3277.661133
3889.868164,3277.783203
3889.819336,3277.465820
3889.843750,3277.099609
3889.697266,3277.099609
3889.624023,3277.148438
3889.575195,3276.757813
3889.477539,3276.757813
3889.697266,3276.684570
3889.575195,3276.855469
3889.477539,3276.660156
3889.526367,3276.879883
3889.477539,3276.245117
3889.526367,3276.245117
3889.575195,3275.830078
3889.477539,3275.610352
3889.282227,3275.756836
3889.526367,3275.610352
3889.355469,3275.317383
3889.331055,3275.317383
3889.233398,3275.195313
3889.208984,3275.097656
3888.964844,3275.097656
3888.940430,3274.853516
3888.574219,3274.609375
3888.891602,3274.340820
3888.696289,3274.682617
3888.598633,3274.365234
3888.671875,3274.291992
3888.916016,3274.438477
3888.842773,3274.877930
3889.233398,3276.635742
3889.941406,3278.002930
3890.283203,3278.564453
3890.551758,3278.588867
3890.356445,3278.271484
3890.258789,3277.832031
3890.283203,3277.758789
3890.039063,3277.685547
3889.868164,3277.612305
3890.161133,3277.734375
3890.136719,3277.709961
3890.258789,3277.490234
3890.014648,3277.539063
3889.965820,3277.294922
3890.112305,3277.587891
3890.161133,3277.661133
3890.429688,3277.539063
3890.258789,3277.661133
3890.161133,3277.636719
3889.965820,3277.221680
3890.136719,3277.050781
3890.014648,3276.953125
3890.112305,3276.831055
3890.087891,3276.855469
3889.746094,3276.611328
3889.794922,3276.464844
3890.039063,3276.342773
3889.843750,3276.196289
3889.941406,3276.245117
3889.990234,3276.196289
3889.916992,3276.318359
3889.941406,3275.952148
3890.014648,3275.952148
3889.770508,3275.732422
3889.672852,3275.390625
3889.794922,3275.610352
3889.746094,3275.390625
3889.550781,3275.512695
3889.575195,3275.146484
3889.501953,3275.195313
3889.355469,3274.877930
3889.404297,3274.902344
3889.306641,3274.951172
3889.282227,3274.877930
3889.257813,3275.097656
3889.453125,3274.682617
3889.257813,3274.804688
3889.233398,3274.877930
3889.062500,3274.707031
3889.038086,3274.462891
3889.062500,3274.414063
3888.916016,3274.267578
3888.940430,3274.755859
3889.282227,3276.416016
3890.332031,3278.100586
3891.015625,3278.930664
3891.210938,3279.003906
3891.064453,3278.784180
3890.991211,3278.515625
3890.942383,3277.929688
3890.820313,3278.027344
3890.722656,3277.954102
3890.649414,3277.954102
3891.015625,3278.149414
3890.820313,3277.978516
3890.747070,3277.807617
3890.917969,3277.685547
3890.795898,3277.465820
3890.747070,3277.490234
3890.917969,3277.392578
3890.869141,3277.441406
3890.893555,3277.539063
3890.771484,3277.368164
3890.551758,3277.368164
3890.576172,3277.172852
3890.502930,3277.026367
3890.380859,3276.782227
3890.209961,3277.099609
3890.380859,3276.855469
3890.209961,3276.733398
3890.039063,3276.953125
3890.039063,3276.684570
3890.063477,3276.391602
3889.892578,3276.611328
3889.892578,3276.416016
3889.648438,3276.391602
3889.770508,3276.220703
3889.550781,3276.000977
3889.379883,3275.952148
3889.257813,3275.805664
3889.111328,3275.732422
3889.208984,3275.756836
3889.257813,3275.488281
3889.160156,3275.463867
3889.306641,3275.537109
3889.282227,3275.341797
3889.111328,3275.244141
3889.208984,3275.024414
3888.940430,3275.024414
3889.013672,3274.853516
3888.964844,3274.804688
3888.818359,3274.780273
3888.696289,3274.804688
3888.647461,3274.951172
3888.818359,3274.536133
3888.549805,3274.414063
3888.769531,3274.267578
3888.769531,3274.096680
3888.769531,3274.609375
3889.062500,3275.952148
3890.063477,3277.490234
3890.747070,3278.417969
3890.820313,3278.710938
3890.844727,3278.393555
3890.771484,3278.100586
3890.576172,3277.734375
3890.478516,3277.587891
3890.429688,3277.563477
3890.551758,3277.685547
3890.722656,3277.905273
3890.600586,3277.612305
3890.502930,3277.514648
3890.063477,3277.368164
3890.112305,3277.099609
3890.087891,3277.099609
3890.087891,3277.221680
3890.209961,3277.392578
3890.234375,3277.246094
3889.892578,3277.001953
3889.916992,3277.050781
3889.770508,3276.953125
3889.843750,3276.977539
3889.770508,3276.831055
3889.794922,3276.782227
3889.746094,3276.416016
3889.648438,3276.635742
3889.819336,3276.562500
3889.770508,3276.464844
3889.526367,3276.269531
3889.526367,3276.245117
3889.379883,3275.830078
3889.331055,3275.903320
3889.428711,3275.732422
3889.550781,3275.512695
3889.477539,3275.415039
3889.233398,3275.244141
3889.453125,3275.268555
3889.501953,3275.195313
3889.428711,3274.829102
3889.501953,3274.853516
3889.306641,3274.902344
3889.306641,3274.755859
3889.233398,3274.462891
3889.135742,3274.072266
3888.989258,3274.047852
3889.208984,3273.876953
3888.769531,3273.632813
3888.769531,3273.510742
3888.623047,3273.754883
3888.623047,3273.901367
3888.916016,3275.415039
3889.550781,3276.611328
3890.698242,3277.050781
3890.991211,3277.514648
3891.088867,3277.026367
3890.673828,3276.904297
3890.454102,3276.416016
3890.136719,3276.147461
3890.209961,3276.538086
3890.136719,3276.147461
3889.990234,3276.245117
3890.185547,3276.416016
3889.941406,3276.245117
3890.161133,3276.098633
3889.868164,3275.927734
3889.941406,3276.196289
3889.843750,3276.074219
3889.868164,3276.220703
3889.941406,3276.269531
3889.916992,3275.805664
3889.868164,3275.952148
3889.672852,3275.659180
3889.550781,3275.659180
3889.746094,3275.341797
3889.746094,3275.415039
3889.501953,3275.219727
3889.575195,3275.195313
3889.526367,3275.219727
3889.306641,3274.975586
3889.233398,3275.048828
3889.501953,3274.926758
3889.379883,3275.195313
3889.184570,3274.829102
3889.355469,3274.926758
3889.086914,3274.780273
3889.184570,3274.560547
3889.062500,3274.462891
3889.086914,3274.218750
3888.916016,3274.218750
3888.842773,3274.194336
3888.793945,3273.999023
3888.867188,3273.852539
3888.647461,3273.950195
3888.647461,3273.681641
3888.525391,3273.364258
3888.476563,3273.535156
3888.378906,3273.535156
3888.378906,3273.461914
3888.378906,3273.168945
3888.354492,3273.071289
3888.281250,3273.193359
3888.183594,3273.974609
3888.916016,3275.390625
3889.697266,3276.806641
3890.112305,3277.416992
3890.454102,3277.490234
3890.161133,3277.270508
3889.941406,3276.904297
3889.599609,3276.416016
3889.428711,3276.416016
3889.721680,3276.611328
3889.624023,3276.733398
3889.550781,3276.879883
3889.379883,3276.660156
3889.379883,3276.513672
3889.526367,3276.464844
3889.355469,3276.586914
3889.282227,3276.489258
3889.404297,3276.562500
3889.575195,3276.416016
3889.453125,3276.513672
3889.501953,3276.269531
3889.575195,3276.025391
3889.379883,3275.830078
3889.526367,3275.976563
3889.550781,3275.805664
3889.184570,3275.415039
3889.111328,3275.170898
3889.160156,3275.585938
3889.282227,3275.195313
3889.257813,3275.146484
3889.282227,3275.000000
3889.355469,3275.048828
3889.086914,3274.780273
3888.989258,3274.536133
3888.818359,3274.829102
3888.989258,3274.511719
3888.940430,3274.365234
3888.867188,3274.536133
3888.916016,3274.365234
3888.671875,3274.316406
3888.793945,3274.047852
3888.427734,3273.828125
3888.378906,3273.535156
3888.525391,3273.632813
3888.281250,3273.486328
3888.134766,3273.632813
3888.256836,3273.291016
3888.232422,3273.120117
3888.061523,3273.095703
3888.110352,3273.168945
3888.110352,3272.875977
3887.915039,3272.851563
3888.012695,3272.778320
3888.110352,3273.071289
3888.500977,3274.121094
3889.233398,3276.074219
3889.819336,3277.246094
3890.332031,3277.490234
3890.405273,3277.172852
3890.209961,3276.806641
3890.283203,3276.684570
3890.161133,3276.538086
3889.941406,3276.660156
3890.332031,3276.538086
3890.283203,3276.635742
3890.039063,3276.635742
3890.112305,3276.635742
3890.258789,3276.562500
3890.161133,3276.440430
3890.209961,3276.171875
3890.039063,3276.171875
3890.136719,3276.269531
3890.063477,3276.171875
3889.941406,3276.220703
3890.185547,3276.123047
3890.136719,3275.976563
3889.916992,3275.927734
3889.965820,3275.878906
3890.063477,3275.708008
3889.941406,3275.415039
3889.892578,3275.292969
3889.941406,3275.390625
3889.916992,3275.415039
3889.819336,3275.390625
3889.794922,3275.268555
3889.916992,3275.219727
3889.819336,3275.292969
3889.843750,3275.390625
3889.868164,3275.439453
3889.892578,3275.170898
3889.721680,3275.146484
3889.770508,3274.902344
3889.697266,3275.170898
3889.794922,3274.731445
3889.550781,3275.244141
3889.697266,3274.853516
3889.282227,3274.902344
3889.453125,3274.926758
3889.184570,3274.609375
3889.184570,3274.365234
3889.135742,3274.291992
3889.135742,3274.609375
3889.477539,3275.512695
3890.307617,3277.343750
3890.722656,3277.929688
3891.210938,3278.295898
3891.259766,3278.002930
3891.015625,3277.490234
3891.113281,3276.928711
3890.869141,3276.757813
3890.576172,3276.879883
3890.942383,3277.026367
3890.747070,3276.635742
3890.844727,3276.489258
3890.771484,3276.489258
3890.722656,3276.586914
3890.551758,3276.391602
3890.820313,3276.513672
3890.771484,3276.342773
3890.625000,3276.367188
3890.576172,3276.367188
3890.478516,3276.147461
3890.356445,3275.927734
3890.209961,3276.000977
3890.332031,3275.952148
3890.185547,3275.366211
3889.648438,3275.439453
3889.721680,3275.219727
3889.721680,3275.097656
3889.794922,3274.975586
3889.282227,3274.829102
3889.306641,3274.707031
3889.355469,3274.731445
3889.208984,3274.877930
3889.306641,3274.487305
3889.257813,3274.536133
3889.184570,3274.438477
3889.208984,3274.316406
3889.160156,3274.389648
3889.257813,3274.047852
3889.233398,3273.974609
3889.184570,3273.999023
3889.184570,3273.950195
3888.989258,3273.999023
3889.062500,3273.828125
3889.086914,3273.999023
3888.769531,3273.852539
3888.818359,3273.706055
3888.842773,3273.730469
3889.086914,3274.853516
3890.014648,3276.562500
3890.698242,3277.490234
3891.040039,3277.807617
3890.844727,3277.685547
3890.820313,3277.441406
3890.673828,3277.172852
3890.771484,3276.977539
3890.502930,3277.001953
3890.649414,3276.904297
3890.673828,3277.026367
3890.405273,3276.733398
3890.478516,3276.635742
3890.332031,3276.611328
3889.990234,3276.513672
3890.258789,3276.562500
3890.136719,3276.416016
3890.429688,3276.440430
3890.209961,3276.171875
3890.136719,3276.391602
3890.112305,3276.074219
3889.794922,3275.903320
3889.746094,3275.781250
3889.624023,3275.830078
3889.648438,3275.561523
3889.794922,3275.537109
3889.526367,3275.268555
3889.624023,3275.244141
3889.282227,3275.122070
3889.355469,3275.170898
3889.550781,3275.048828
3889.501953,3275.146484
3889.306641,3275.122070
3889.404297,3274.877930
3889.282227,3274.829102
3889.160156,3274.780273
3889.160156,3274.609375
3889.086914,3274.267578
3888.940430,3274.291992
3888.916016,3274.243164
3888.818359,3274.291992
3888.867188,3274.047852
3888.916016,3274.047852
3888.891602,3274.047852
3888.720703,3273.803711
3888.745117,3273.730469
3888.842773,3273.730469
3888.818359,3273.632813
3888.598633,3273.437500
3888.671875,3273.706055
3888.647461,3273.437500
3888.671875,3273.388672
3888.793945,3274.291992
3889.697266,3275.878906
3890.307617,3277.050781
3890.747070,3277.783203
3891.503906,3277.612305
3890.942383,3277.124023
3890.649414,3276.611328
3890.502930,3276.562500
3890.332031,3276.489258
3890.600586,3276.733398
3890.747070,3276.904297
3890.893555,3276.879883
3890.820313,3276.489258
3890.869141,3276.489258
3890.722656,3276.391602
3890.771484,3276.318359
3890.771484,3276.489258
3890.893555,3276.123047
3890.820313,3276.391602
3890.917969,3276.293945
3890.844727,3276.123047
3890.991211,3276.025391
3890.820313,3275.756836
3890.917969,3275.708008
3890.771484,3275.708008
3890.673828,3275.488281
3890.625000,3275.585938
3890.600586,3275.439453
3890.551758,3275.439453
3890.673828,3275.366211
3890.649414,3275.195313
3890.747070,3275.317383
3890.698242,3275.146484
3890.527344,3275.000000
3890.600586,3274.755859
3890.527344,3274.877930
3890.209961,3274.829102
3890.136719,3274.707031
3890.454102,3274.902344
3890.258789,3274.414063
3890.014648,3274.438477
3889.819336,3274.218750
3889.965820,3274.047852
3890.039063,3274.316406
3889.868164,3274.340820
3889.794922,3274.365234
3890.063477,3274.047852
3889.868164,3273.974609
3889.453125,3273.657227
3889.599609,3274.316406
3890.136719,3275.708008
3890.600586,3276.782227
3891.088867,3277.661133
3891.357422,3277.880859
3891.406250,3277.685547
3891.333008,3277.270508
3891.015625,3276.977539
3890.820313,3276.928711
3890.869141,3277.099609
3890.771484,3276.928711
3890.795898,3276.879883
3890.991211,3276.928711
3890.917969,3276.708984
3890.869141,3276.586914
3890.771484,3276.904297
3890.795898,3276.806641
3890.942383,3276.879883
3891.088867,3276.855469
3890.893555,3276.806641
3890.698242,3276.611328
3890.795898,3276.513672
3890.722656,3276.342773
3890.478516,3276.220703
3890.673828,3275.878906
3890.429688,3275.927734
3890.185547,3275.756836
3890.307617,3275.805664
3890.258789,3275.610352
3890.307617,3275.805664
3890.332031,3275.683594
3890.234375,3275.488281
3890.161133,3275.341797
3890.185547,3275.317383
3890.209961,3275.097656
3890.136719,3275.195313
3890.039063,3274.877930
3890.039063,3274.829102
3890.014648,3274.780273
3889.721680,3274.658203
3889.819336,3274.560547
3889.843750,3274.682617
3889.721680,3274.340820
3889.648438,3274.243164
3889.624023,3274.169922
3889.526367,3274.121094
3889.355469,3273.950195
3889.379883,3273.828125
3889.428711,3274.462891
3890.161133,3275.927734
3890.551758,3277.148438
3891.333008,3278.100586
3891.406250,3278.100586
3891.308594,3277.954102
3891.308594,3277.709961
3890.869141,3277.368164
3890.844727,3277.099609
3891.137695,3277.490234
3891.186523,3277.636719
3891.235352,3277.441406
3891.259766,3277.661133
3890.820313,3277.392578
3891.040039,3277.172852
3890.966797,3277.172852
3890.795898,3277.197266
3890.698242,3277.294922
3890.795898,3277.246094
3890.551758,3277.026367
3890.869141,3276.977539
3890.722656,3276.904297
3890.625000,3276.513672
3890.600586,3276.782227
3890.332031,3276.416016
3890.600586,3276.367188
3890.185547,3276.586914
3890.209961,3276.342773
3890.209961,3276.074219
3890.332031,3276.269531
3890.258789,3276.074219
3889.868164,3275.878906
3889.990234,3275.805664
3889.941406,3275.878906
3889.892578,3275.659180
3889.916992,3275.561523
3889.624023,3275.781250
3889.428711,3275.439453
3889.746094,3275.512695
3889.355469,3275.219727
3889.404297,3275.170898
3889.306641,3275.170898
3889.331055,3275.073242
3888.989258,3275.122070
3889.306641,3275.268555
3889.233398,3274.877930
3889.184570,3274.731445
3889.038086,3274.560547
3889.086914,3274.731445
3889.184570,3274.560547
3889.062500,3274.560547
3889.233398,3274.462891
3888.964844,3274.365234
3888.842773,3274.731445
3889.599609,3276.269531
3890.283203,3278.027344
3890.966797,3278.784180
3891.284180,3278.881836
3891.015625,3278.808594
3890.942383,3278.393555
3891.015625,3278.173828
3890.820313,3278.491211
3891.064453,3278.637695
3891.284180,3278.613281
3891.357422,3278.710938
3891.210938,3278.515625
3891.064453,3278.173828
3891.186523,3278.002930
3891.137695,3277.832031
3890.942383,3277.978516
3890.893555,3277.880859
3890.747070,3277.709961
3890.917969,3277.612305
3890.673828,3277.661133
3890.771484,3277.294922
3890.893555,3277.270508
3890.820313,3277.343750
3890.893555,3276.879883
3890.673828,3276.977539
3890.356445,3276.684570
3890.332031,3276.538086
3890.600586,3276.611328
3890.429688,3276.489258
3890.307617,3276.342773
3890.478516,3276.269531
3890.454102,3276.049805
3890.307617,3276.025391
3890.332031,3275.878906
3890.380859,3275.903320
3890.454102,3276.025391
3890.332031,3275.732422
3890.161133,3275.756836
3890.087891,3275.512695
3890.112305,3275.512695
3890.014648,3275.415039
3889.843750,3275.244141
3889.648438,3275.097656
3889.868164,3275.146484
3889.624023,3274.975586
3889.770508,3274.902344
3889.599609,3274.902344
3889.746094,3274.951172
3889.721680,3275.366211
3890.600586,3276.562500
3891.113281,3278.149414
3891.723633,3278.515625
3891.699219,3278.369141
3891.674805,3278.320313
3891.333008,3277.978516
3891.259766,3277.758789
3891.235352,3277.954102
3891.333008,3277.905273
3891.455078,3278.002930
3891.699219,3278.027344
3891.137695,3277.880859
3891.284180,3277.587891
3891.235352,3277.539063
3891.284180,3277.636719
3890.991211,3277.563477
3891.162109,3277.563477
3891.040039,3277.587891
3891.186523,3277.636719
3891.040039,3277.807617
3891.137695,3277.197266
3890.747070,3277.124023
3890.820313,3277.148438
3890.820313,3276.904297
3890.893555,3276.879883
3890.771484,3276.708984
3890.771484,3276.489258
3890.673828,3276.586914
3890.576172,3276.293945
3890.405273,3276.367188
3890.600586,3275.952148
3890.356445,3276.000977
3890.307617,3275.927734
3890.551758,3276.074219
3890.283203,3276.025391
3890.429688,3275.756836
3890.209961,3275.341797
3890.209961,3275.585938
3890.014648,3275.463867
3890.039063,3275.390625
3890.136719,3275.195313
3889.965820,3275.292969
3889.965820,3274.975586
3889.965820,3275.000000
3889.843750,3275.000000
3889.746094,3274.926758
3889.648438,3274.658203
3889.575195,3274.682617
3889.672852,3274.414063
3889.770508,3275.512695
3890.380859,3277.026367
3891.064453,3278.222656
3891.674805,3278.784180
3891.845703,3278.808594
3891.601563,3278.491211
3891.381836,3278.027344
3891.308594,3277.758789
3891.113281,3277.807617
3891.284180,3278.125000
3891.137695,3278.149414
3891.308594,3278.002930
3891.406250,3277.758789
3891.308594,3277.661133
3891.015625,3277.392578
3891.113281,3277.490234
3890.942383,3277.343750
3890.942383,3277.441406
3890.942383,3277.294922
3890.893555,3277.587891
3890.747070,3277.319336
3890.991211,3277.319336
3891.040039,3277.001953
3890.844727,3277.099609
3890.893555,3276.733398
3890.673828,3276.660156
3890.673828,3276.586914
3890.649414,3276.367188
3890.502930,3276.440430
3890.234375,3276.440430
3890.673828,3275.976563
3890.283203,3275.927734
3890.502930,3276.000977
3890.307617,3275.854492
3889.965820,3275.634766
3890.014648,3275.610352
3890.307617,3275.512695
3890.014648,3275.439453
3890.014648,3275.244141
3890.014648,3275.219727
3889.868164,3275.195313
3889.843750,3274.975586
3889.550781,3274.560547
3889.672852,3274.633789
3889.526367,3274.414063
3889.379883,3274.414063
3889.550781,3274.291992
3889.550781,3274.218750
3889.233398,3274.023438
3889.208984,3274.072266
3889.257813,3274.121094
3889.550781,3274.243164
3889.355469,3273.950195
3889.428711,3274.975586
3890.087891,3276.733398
3890.747070,3277.954102
3891.235352,3278.369141
3891.333008,3278.491211
3891.162109,3278.393555
3891.308594,3278.149414
3891.064453,3277.832031
3890.966797,3277.905273
3890.942383,3277.832031
3891.137695,3278.125000
3891.064453,3278.222656
3891.015625,3277.929688
3891.040039,3277.661133
3890.820313,3277.661133
3890.893555,3277.539063
3890.917969,3277.612305
3891.064453,3277.587891
3890.966797,3277.636719
3890.917969,3277.441406
3890.747070,3277.465820
3891.015625,3277.416992
3890.649414,3277.026367
3890.869141,3276.855469
3890.649414,3277.001953
3890.649414,3276.904297
3890.698242,3276.879883
3890.502930,3276.513672
3890.332031,3276.513672
3890.722656,3276.171875
3890.502930,3276.245117
3890.600586,3276.318359
3890.551758,3276.318359
3890.502930,3276.171875
3890.527344,3276.123047
3890.527344,3275.781250
3890.478516,3275.878906
3890.600586,3275.805664
3890.234375,3275.537109
3890.356445,3275.463867
3890.332031,3275.488281
3890.258789,3275.268555
3890.234375,3275.366211
3890.185547,3275.195313
3890.209961,3275.000000
3890.209961,3274.902344
3890.063477,3274.658203
3889.843750,3274.560547
3889.868164,3274.340820
3890.332031,3275.488281
3890.893555,3277.099609
3891.650391,3277.954102
3892.041016,3278.393555
3891.943359,3278.344727
3891.699219,3277.929688
3891.479492,3277.416992
3891.381836,3277.148438
3891.210938,3277.392578
3891.479492,3277.221680
3891.406250,3277.514648
3891.308594,3277.343750
3891.210938,3277.197266
3891.162109,3277.221680
3891.284180,3277.124023
3891.186523,3277.124023
3891.088867,3277.099609
3891.210938,3277.197266
3890.942383,3277.001953
3891.015625,3276.879883
3891.040039,3276.831055
3891.088867,3276.977539
3890.966797,3276.416016
3890.893555,3276.416016
3891.015625,3276.416016
3890.673828,3276.220703
3890.649414,3276.098633
3890.454102,3276.147461
3890.673828,3275.952148
3890.649414,3275.756836
3890.405273,3275.830078
3890.454102,3275.463867
3890.136719,3275.781250
3890.283203,3275.415039
3890.307617,3275.195313
